V1,V2,V3,V4
14.5,13.5,44.0,44.0
20.0,20.0,34.0,34.0
15.8779296875,16.1220703125,50.6015625,49.3984375
13.9453125,14.0546875,41.2099609375,38.7900390625
12.26171875,11.73828125,35.775390625,32.224609375
10.71826171875,9.28173828125,36.26513671875,31.73486328125
11.10546875,8.89453125,34.66357421875,29.33642578125
21.25048828125,18.74951171875,34.9814453125,29.0185546875
11.1357421875,8.8642578125,43.2373046875,36.7626953125
10.90869140625,9.09130859375,33.45947265625,26.54052734375
4.775390625,3.224609375,37.6708984375,30.3291015625
8.8544921875,7.1455078125,37.89111328125,30.10888671875
21.08935546875,18.91064453125,42.12353515625,33.87646484375
13.27392578125,10.72607421875,50.34619140625,41.65380859375
15.18994140625,12.81005859375,50.513671875,41.486328125
2.7705078125,1.2294921875,40.5830078125,31.4169921875
6.169921875,5.830078125,44.5439453125,35.4560546875
15.68701171875,16.31298828125,36.4375,27.5625
15.5615234375,16.4384765625,40.32568359375,31.67431640625
13.8037109375,14.1962890625,52.2470703125,43.7529296875
8.16552734375,7.83447265625,42.1865234375,33.8134765625
14.2958984375,13.7041015625,46.08935546875,37.91064453125
11.97998046875,12.02001953125,49.89306640625,42.10693359375
17.2958984375,18.7041015625,47.583984375,40.416015625
14.60791015625,17.39208984375,37.20703125,30.79296875
14.36962890625,17.63037109375,44.86376953125,39.13623046875
6.84619140625,9.15380859375,36.6533203125,31.3466796875
17.9296875,18.0703125,44.62548828125,39.37451171875
15.15869140625,12.84130859375,50.7587890625,45.2412109375
7.95361328125,4.04638671875,32.96728515625,27.03271484375
3.919921875,0.080078125,45.14697265625,38.85302734375
11.05419921875,8.94580078125,41.21240234375,34.78759765625
7.73193359375,8.26806640625,51.1240234375,44.8759765625
0.48779296875,3.51220703125,46.88525390625,41.11474609375
9.74267578125,14.25732421875,52.51904296875,47.48095703125
9.60546875,14.39453125,42.0546875,37.9453125
17.87646484375,22.12353515625,49.54052734375,46.45947265625
18.2119140625,21.7880859375,31.0458984375,28.9541015625
6.33056640625,9.66943359375,30.662109375,29.337890625
12.15380859375,15.84619140625,48.4501953125,47.5498046875
7.802734375,12.197265625,50.404296875,49.595703125
7.48681640625,12.51318359375,38.43603515625,37.56396484375
1.35546875,6.64453125,42.41064453125,41.58935546875
1.43408203125,6.56591796875,46.2451171875,45.7548828125
15.64208984375,20.35791015625,49.96728515625,50.03271484375
11.88330078125,16.11669921875,45.7158203125,46.2841796875
8.1201171875,11.8798828125,49.67578125,50.32421875
16.38916015625,19.61083984375,43.947265625,44.052734375
18.74169921875,21.25830078125,36.4833984375,35.5166015625
9.15576171875,10.84423828125,31.09228515625,28.90771484375
5.51806640625,6.48193359375,51.53662109375,48.46337890625
5.69775390625,6.30224609375,47.64599609375,44.35400390625
17.66943359375,18.33056640625,49.40478515625,46.59521484375
7.58349609375,8.41650390625,48.955078125,47.044921875
9.68212890625,10.31787109375,46.54638671875,45.45361328125
6.1015625,5.8984375,30.41748046875,29.58251953125
8.69580078125,7.30419921875,36.69189453125,35.30810546875
11.044921875,8.955078125,39.3193359375,36.6806640625
10.6865234375,9.3134765625,34.09423828125,29.90576171875
1.423828125,2.576171875,32.75,27.25
11.52001953125,16.47998046875,51.0576171875,44.9423828125
13.62060546875,22.37939453125,46.9052734375,41.0947265625
2.412109375,13.587890625,40.33056640625,35.66943359375
12.2275390625,23.7724609375,47.49462890625,44.50537109375
-1.1591796875,9.1591796875,46.6123046875,45.3876953125
15.60400390625,24.39599609375,35.8798828125,36.1201171875
-2.1552734375,6.1552734375,49.40771484375,50.59228515625
7.255859375,16.744140625,41.15576171875,42.84423828125
-3.96240234375,7.96240234375,46.86181640625,49.13818359375
6.703125,21.296875,40.00146484375,43.99853515625
-0.28955078125,16.28955078125,41.86083984375,50.13916015625
9.14208984375,26.85791015625,29.7578125,46.2421875
4.64501953125,23.35498046875,31.35546875,60.64453125
-6.3583984375,14.3583984375,24.89404296875,71.10595703125
-2.3232421875,22.3232421875,7.23486328125,72.76513671875
-3.30859375,27.30859375,7.65869140625,92.34130859375
-16.935546875,20.935546875,-8.51220703125,92.51220703125
-8.58056640625,36.58056640625,-24.318359375,88.318359375
-9.64892578125,41.64892578125,-15.42431640625,103.42431640625
-23.7841796875,31.7841796875,-12.13916015625,108.13916015625
-12.939453125,44.939453125,-15.22509765625,103.22509765625
-19.33154296875,39.33154296875,-17.5849609375,97.5849609375
-15.3388671875,43.3388671875,-15.98681640625,95.98681640625
-19.3486328125,39.3486328125,-14.908203125,94.908203125
-9.61865234375,49.61865234375,-22.50390625,86.50390625
-24.18505859375,36.18505859375,-18.658203125,90.658203125
-14.8701171875,46.8701171875,-15.103515625,95.103515625
-15.3955078125,47.3955078125,-21.55810546875,89.55810546875
-13.541015625,49.541015625,-23.84814453125,87.84814453125
-17.27587890625,45.27587890625,-19.96875,91.96875
-26.7919921875,34.7919921875,-20.0556640625,92.0556640625
-16.42431640625,44.42431640625,-14.2861328125,98.2861328125
-14.48876953125,46.48876953125,-8.78369140625,104.78369140625
-13.1220703125,49.1220703125,-25.55029296875,89.55029296875
-12.205078125,52.205078125,-22.46240234375,94.46240234375
-29.39697265625,37.39697265625,-29.30029296875,89.30029296875
-26.2724609375,42.2724609375,-13.82958984375,105.82958984375
-24.50537109375,44.50537109375,-13.888671875,105.888671875
-18.033203125,50.033203125,-25.4580078125,93.4580078125
-23.1220703125,43.1220703125,-10.6787109375,106.6787109375
-16.2783203125,48.2783203125,-27.8173828125,87.8173828125
-28.01513671875,36.01513671875,-19.2001953125,95.2001953125
-20.5908203125,44.5908203125,-17.08935546875,97.08935546875
-17.8671875,49.8671875,-11.5869140625,103.5869140625
-25.3701171875,45.3701171875,-26.5498046875,90.5498046875
-28.51611328125,44.51611328125,-17.62841796875,101.62841796875
-34.8837890625,38.8837890625,-14.38037109375,106.38037109375
-20.39453125,52.39453125,-30.443359375,90.443359375
-19.3349609375,51.3349609375,-25.67724609375,93.67724609375
-26.2333984375,42.2333984375,-14.21337890625,102.21337890625
-25.6240234375,41.6240234375,-12.4189453125,100.4189453125
-13.81982421875,53.81982421875,-12.77783203125,96.77783203125
-14.7802734375,54.7802734375,-17.716796875,89.716796875
-18.13916015625,54.13916015625,-5.44970703125,101.44970703125
-35.36572265625,39.36572265625,-9.88623046875,97.88623046875
-22.01123046875,54.01123046875,-20.67822265625,88.67822265625
-35.90576171875,39.90576171875,-13.39599609375,97.39599609375
-25.22412109375,49.22412109375,-13.72314453125,97.72314453125
-30.376953125,42.376953125,-23.59521484375,87.59521484375
-25.79443359375,45.79443359375,-19.17431640625,91.17431640625
-17.7216796875,53.7216796875,-24.72119140625,84.72119140625
-34.10888671875,38.10888671875,-12.42578125,96.42578125
-28.66064453125,44.66064453125,-16.3037109375,92.3037109375
-28.994140625,44.994140625,-8.2109375,100.2109375
-32.84619140625,40.84619140625,-3.9462890625,103.9462890625
-34.21142578125,38.21142578125,-5.37841796875,101.37841796875
-19.36767578125,51.36767578125,-14.5390625,90.5390625
-30.75146484375,38.75146484375,-1.63427734375,101.63427734375
-22.74951171875,46.74951171875,-14.9716796875,86.9716796875
-25.478515625,45.478515625,-20.83447265625,80.83447265625
-26.69580078125,46.69580078125,-19.345703125,83.345703125
-17.89013671875,57.89013671875,-14.37646484375,90.37646484375
-34.5400390625,42.5400390625,-23.5673828125,83.5673828125
-36.4033203125,40.4033203125,-4.46435546875,104.46435546875
-19.6455078125,55.6455078125,-8.7001953125,100.7001953125
-30.728515625,42.728515625,-16.14453125,92.14453125
-32.11572265625,40.11572265625,-12.9443359375,92.9443359375
-31.99609375,39.99609375,-13.4345703125,89.4345703125
-30.20166015625,42.20166015625,-3.984375,95.984375
-34.3642578125,38.3642578125,-14.861328125,82.861328125
-26.201171875,46.201171875,-18.1611328125,78.1611328125
-27.7236328125,43.7236328125,-3.830078125,91.830078125
-33.251953125,37.251953125,-5.72705078125,89.72705078125
-33.212890625,37.212890625,-1.70361328125,93.70361328125
-15.87353515625,55.87353515625,-17.66748046875,77.66748046875
-17.16015625,57.16015625,0.37158203125,95.62841796875
-22.6767578125,54.6767578125,-15.67919921875,79.67919921875
-33.9052734375,45.9052734375,-17.92138671875,77.92138671875
-20.44384765625,60.44384765625,1.609375,98.390625
-20.1787109375,60.1787109375,-3.02197265625,95.02197265625
-33.2900390625,45.2900390625,-19.69580078125,79.69580078125
-30.16259765625,46.16259765625,-0.3154296875,100.3154296875
-23.22998046875,51.22998046875,-4.87744140625,96.87744140625
-16.83984375,56.83984375,-5.46044921875,97.46044921875
-29.14404296875,45.14404296875,-2.14990234375,102.14990234375
-18.03466796875,58.03466796875,-20.95556640625,84.95556640625
-25.1728515625,53.1728515625,-13.76611328125,93.76611328125
-30.119140625,50.119140625,-8.384765625,100.384765625
-24.52099609375,56.52099609375,-22.6162109375,86.6162109375
-28.29296875,52.29296875,-14.37890625,94.37890625
-35.673828125,43.673828125,-21.74951171875,85.74951171875
-33.12744140625,45.12744140625,-18.95068359375,86.95068359375
-29.10009765625,49.10009765625,-12.23876953125,92.23876953125
-27.78515625,51.78515625,-7.8056640625,95.8056640625
-39.01171875,43.01171875,-17.68701171875,85.68701171875
-36.32763671875,48.32763671875,-3.7626953125,99.7626953125
-41.2333984375,45.2333984375,-9.8271484375,93.8271484375
-35.43359375,51.43359375,-5.693359375,97.693359375
-24.97802734375,60.97802734375,-7.27880859375,95.27880859375
-26.19384765625,58.19384765625,-14.638671875,86.638671875
-21.48388671875,61.48388671875,-19.92529296875,79.92529296875
-25.11083984375,57.11083984375,-9.31689453125,89.31689453125
-35.09228515625,47.09228515625,-14.9462890625,82.9462890625
-33.25732421875,49.25732421875,-0.8583984375,96.8583984375
-29.3916015625,53.3916015625,-3.00244140625,95.00244140625
-29.3759765625,53.3759765625,-15.2490234375,83.2490234375
-21.2412109375,61.2412109375,-11.44287109375,87.44287109375
-35.10986328125,47.10986328125,-17.45849609375,81.45849609375
-27.0830078125,55.0830078125,-5.2451171875,93.2451171875
-29.15283203125,53.15283203125,1.16552734375,98.83447265625
-23.216796875,59.216796875,-2.337890625,94.337890625
-37.1630859375,45.1630859375,-15.89892578125,79.89892578125
-32.962890625,48.962890625,-13.65185546875,81.65185546875
-26.70263671875,54.70263671875,2.32177734375,97.67822265625
-38.5361328125,42.5361328125,-11.99462890625,83.99462890625
-22.60546875,58.60546875,-4.55029296875,92.55029296875
-30.966796875,50.966796875,-1.23583984375,97.23583984375
-31.55126953125,51.55126953125,-15.9169921875,83.9169921875
-32.17041015625,52.17041015625,-0.46435546875,100.46435546875
-34.5791015625,50.5791015625,-8.8037109375,92.8037109375
-28.58203125,56.58203125,-4.931640625,96.931640625
-40.14892578125,44.14892578125,-2.90576171875,98.90576171875
-31.4716796875,51.4716796875,-6.798828125,94.798828125
-24.8955078125,56.8955078125,-4.6669921875,96.6669921875
-28.75732421875,52.75732421875,-20.53955078125,80.53955078125
-25.20556640625,57.20556640625,-6.44482421875,94.44482421875
-34.10400390625,50.10400390625,-2.40380859375,98.40380859375
-41.06884765625,45.06884765625,-18.4306640625,82.4306640625
-25.640625,61.640625,-12.51220703125,88.51220703125
-29.5322265625,57.5322265625,-0.609375,100.609375
-22.81884765625,62.81884765625,-12.693359375,88.693359375
-35.93310546875,47.93310546875,-0.771484375,100.771484375
-27.44775390625,55.44775390625,-12.88134765625,88.88134765625
-29.76025390625,53.76025390625,-3.05224609375,99.05224609375
-30.86376953125,54.86376953125,-5.26025390625,97.26025390625
-40.3349609375,48.3349609375,-7.43359375,95.43359375
-39.52734375,51.52734375,-17.50146484375,85.50146484375
-37.8876953125,53.8876953125,-9.46533203125,93.46533203125
-37.2265625,53.2265625,-15.42724609375,87.42724609375
-29.82177734375,57.82177734375,-1.54443359375,101.54443359375
-36.30224609375,48.30224609375,-1.94189453125,101.94189453125
-27.35205078125,55.35205078125,-6.6240234375,98.6240234375
-23.3974609375,59.3974609375,-7.45263671875,99.45263671875
-24.39990234375,60.39990234375,-24.2138671875,84.2138671875
-35.87548828125,51.87548828125,-8.6953125,100.6953125
-29.10791015625,61.10791015625,-8.77001953125,100.77001953125
-39.4931640625,51.4931640625,-16.44091796875,92.44091796875
-36.83154296875,52.83154296875,-21.82470703125,85.82470703125
-29.43359375,57.43359375,-19.11767578125,87.11767578125
-37.9521484375,45.9521484375,-16.5302734375,88.5302734375
-33.0390625,49.0390625,-20.20458984375,84.20458984375
-36.99853515625,44.99853515625,-2.15185546875,102.15185546875
-33.64990234375,49.64990234375,-18.22802734375,86.22802734375
-26.45947265625,58.45947265625,-6.19921875,98.19921875
-36.876953125,48.876953125,-9.849609375,93.849609375
-26.63623046875,58.63623046875,-15.091796875,87.091796875
-29.8623046875,53.8623046875,-8.01220703125,92.01220703125
-28.9443359375,52.9443359375,-6.833984375,90.833984375
-36.2998046875,44.2998046875,0.1923828125,95.8076171875
-32.158203125,48.158203125,-3.11181640625,91.11181640625
-24.4853515625,56.4853515625,3.2099609375,96.7900390625
-21.0576171875,61.0576171875,-12.75439453125,80.75439453125
-27.63037109375,55.63037109375,-12.86474609375,80.86474609375
-22.07763671875,62.07763671875,-15.00732421875,79.00732421875
-36.43017578125,48.43017578125,-5.15869140625,89.15869140625
-36.7724609375,48.7724609375,-11.3779296875,83.3779296875
-33.12158203125,53.12158203125,-5.74169921875,89.74169921875
-31.35986328125,55.35986328125,-14.2744140625,82.2744140625
-39.310546875,47.310546875,-16.90380859375,80.90380859375
-24.9111328125,60.9111328125,0.50732421875,99.49267578125
-32.34521484375,52.34521484375,-13.896484375,85.896484375
-28.00634765625,56.00634765625,-2.03369140625,98.03369140625
-30.27294921875,54.27294921875,-11.92431640625,87.92431640625
-23.25146484375,63.25146484375,-9.67529296875,89.67529296875
-30.64404296875,58.64404296875,-17.4267578125,81.4267578125
-35.8701171875,55.8701171875,-11.25830078125,87.25830078125
-42.37353515625,50.37353515625,-7.1416015625,91.1416015625
-31.93701171875,59.93701171875,-16.93505859375,80.93505859375
-26.814453125,62.814453125,-18.48486328125,78.48486328125
-25.57470703125,61.57470703125,-1.72216796875,93.72216796875
-30.77734375,54.77734375,1.26123046875,94.73876953125
-40.666015625,44.666015625,-9.771484375,81.771484375
-25.07177734375,61.07177734375,-15.09521484375,75.09521484375
-29.57568359375,57.57568359375,3.107421875,92.892578125
-25.8037109375,61.8037109375,-11.17431640625,79.17431640625
-31.65869140625,55.65869140625,-3.77294921875,87.77294921875
-23.3408203125,63.3408203125,-10.43310546875,82.43310546875
-33.158203125,53.158203125,-4.90087890625,88.90087890625
-31.3017578125,55.3017578125,-3.01123046875,91.01123046875
-29.71337890625,57.71337890625,3.26513671875,96.73486328125
-32.142578125,56.142578125,-8.18212890625,84.18212890625
-30.3310546875,58.3310546875,0.427734375,91.572265625
-30.2001953125,58.2001953125,-11.15478515625,79.15478515625
-37.90625,49.90625,-11.10107421875,79.10107421875
-25.7314453125,61.7314453125,4.580078125,95.419921875
-41.88427734375,45.88427734375,-5.951171875,85.951171875
-26.34033203125,62.34033203125,-10.4443359375,82.4443359375
-42.845703125,46.845703125,-12.69091796875,80.69091796875
-43.0673828125,47.0673828125,-16.61865234375,76.61865234375
-36.80712890625,52.80712890625,-16.3291015625,76.3291015625
-36.1416015625,52.1416015625,1.97900390625,94.02099609375
-23.39599609375,63.39599609375,-13.88671875,77.88671875
-36.95458984375,48.95458984375,-2.01806640625,90.01806640625
-27.0380859375,59.0380859375,-0.37548828125,92.37548828125
-33.56494140625,53.56494140625,-6.82568359375,86.82568359375
-34.18798828125,54.18798828125,-7.2236328125,87.2236328125
-30.47900390625,58.47900390625,-1.49755859375,93.49755859375
-26.15673828125,62.15673828125,2.306640625,97.693359375
-35.25390625,51.25390625,-9.94140625,85.94140625
-22.119140625,62.119140625,-2.373046875,94.373046875
-27.24560546875,55.24560546875,0.98095703125,99.01904296875
-23.01171875,59.01171875,-1.759765625,97.759765625
-37.4697265625,45.4697265625,-14.3515625,86.3515625
-34.3046875,50.3046875,-14.53564453125,86.53564453125
-28.99169921875,56.99169921875,-6.16162109375,94.16162109375
-35.0810546875,51.0810546875,-19.25830078125,79.25830078125
-34.466796875,50.466796875,-6.0400390625,90.0400390625
-23.48046875,59.48046875,-16.83203125,76.83203125
-28.744140625,52.744140625,-3.95263671875,87.95263671875
-38.83837890625,42.83837890625,-7.6015625,83.6015625
-35.9677734375,47.9677734375,-11.78515625,79.78515625
-35.8203125,51.8203125,-8.330078125,84.330078125
-27.70166015625,63.70166015625,-6.9765625,86.9765625
-36.87646484375,56.87646484375,-7.50439453125,87.50439453125
-34.92822265625,58.92822265625,-13.80908203125,81.80908203125
-33.962890625,57.962890625,-11.9072265625,83.9072265625
-42.548828125,46.548828125,0.11572265625,95.88427734375
-31.435546875,55.435546875,-5.8154296875,89.8154296875
-39.18994140625,47.18994140625,2.28662109375,97.71337890625
-23.9296875,63.9296875,-7.5341796875,87.5341796875
-27.2802734375,63.2802734375,-7.20849609375,87.20849609375
-34.58154296875,58.58154296875,-10.69189453125,82.69189453125
-31.24560546875,63.24560546875,-5.9892578125,85.9892578125
-33.05224609375,61.05224609375,-11.154296875,79.154296875
-30.2353515625,62.2353515625,3.7236328125,92.2763671875
-39.31005859375,51.31005859375,2.541015625,89.458984375
-40.763671875,48.763671875,-4.81640625,80.81640625
-30.794921875,58.794921875,-4.439453125,80.439453125
-41.25048828125,49.25048828125,1.60205078125,86.39794921875
-31.77490234375,59.77490234375,-4.71484375,80.71484375
-40.05615234375,52.05615234375,-9.36767578125,77.36767578125
-28.00439453125,64.00439453125,3.72998046875,92.27001953125
-35.75146484375,55.75146484375,-3.27734375,87.27734375
-31.5107421875,59.5107421875,3.7763671875,96.2236328125
-41.40478515625,49.40478515625,-10.99609375,82.99609375
-37.3935546875,53.3935546875,-7.6328125,87.6328125
-37.33447265625,53.33447265625,-16.32275390625,80.32275390625
-35.11962890625,55.11962890625,-3.3076171875,95.3076171875
-32.8046875,56.8046875,-8.72216796875,92.72216796875
-36.611328125,52.611328125,-2.47119140625,102.47119140625
-42.7978515625,46.7978515625,-4.205078125,104.205078125
-31.46533203125,59.46533203125,-19.451171875,91.451171875
-36.44482421875,56.44482421875,-7.81201171875,103.81201171875
-27.36279296875,67.36279296875,-9.1611328125,101.1611328125
-37.84130859375,57.84130859375,-13.70947265625,93.70947265625
-29.7265625,65.7265625,-5.921875,97.921875
-45.205078125,49.205078125,-10.32568359375,90.32568359375
-28.72900390625,64.72900390625,-17.30859375,81.30859375
-28.7802734375,64.7802734375,-11.00341796875,87.00341796875
-31.58642578125,63.58642578125,-7.28173828125,91.28173828125
-46.978515625,50.978515625,-13.85888671875,85.85888671875
-36.45361328125,64.45361328125,-8.4453125,92.4453125
-41.44287109375,61.44287109375,-4.87890625,96.87890625
-41.60888671875,61.60888671875,-13.1650390625,89.1650390625
-31.0244140625,71.0244140625,-7.43115234375,95.43115234375
-48.1083984375,52.1083984375,-17.80810546875,85.80810546875
-33.392578125,65.392578125,-10.33740234375,94.33740234375
-37.24658203125,61.24658203125,-12.94970703125,92.94970703125
-43.70361328125,55.70361328125,-9.52392578125,97.52392578125
-30.5078125,70.5078125,-19.974609375,87.974609375
-33.29736328125,69.29736328125,-22.31005859375,86.31005859375
-49.83203125,53.83203125,-8.5869140625,100.5869140625
-50.08740234375,54.08740234375,-18.767578125,90.767578125
-48.20166015625,56.20166015625,-8.53173828125,100.53173828125
-36.306640625,68.306640625,-9.216796875,97.216796875
-36.37744140625,68.37744140625,0.0244140625,99.9755859375
-34.18994140625,70.18994140625,5.84423828125,94.15576171875
-47.44482421875,55.44482421875,4.30419921875,75.69580078125
-31.9794921875,67.9794921875,22.67236328125,73.32763671875
-41.93701171875,53.93701171875,33.5654296875,62.4345703125
-29.76953125,61.76953125,35.369140625,44.630859375
-24.07275390625,64.07275390625,34.7646484375,29.2353515625
-25.3193359375,61.3193359375,37.1162109375,22.8837890625
-23.65478515625,63.65478515625,38.578125,21.421875
-26.85595703125,62.85595703125,57.90869140625,42.09130859375
-30.44775390625,62.44775390625,36.14501953125,23.85498046875
-27.90673828125,67.90673828125,54.2646484375,45.7353515625
-42.84326171875,54.84326171875,38.97265625,33.02734375
-29.08837890625,69.08837890625,34.62353515625,29.37646484375
-38.71826171875,58.71826171875,39.236328125,32.763671875
-39.9970703125,55.9970703125,40.572265625,31.427734375
-41.29443359375,53.29443359375,42.234375,29.765625
-26.97998046875,66.97998046875,43.78857421875,28.21142578125
-35.296875,59.296875,42.8896484375,25.1103515625
-30.2783203125,66.2783203125,59.36474609375,40.63525390625
-37.72998046875,61.72998046875,59.232421875,40.767578125
-35.3076171875,67.3076171875,50.6669921875,33.3330078125
-42.66357421875,62.66357421875,55.91015625,40.08984375
-43.58642578125,63.58642578125,57.193359375,42.806640625
-52.05615234375,56.05615234375,42.6669921875,29.3330078125
-34.19921875,74.19921875,40.37646484375,27.62353515625
-42.1982421875,66.1982421875,48.27490234375,35.72509765625
-48.21240234375,60.21240234375,48.26416015625,35.73583984375
-38.361328125,70.361328125,54.2490234375,41.7509765625
-34.7119140625,74.7119140625,52.1689453125,39.8310546875
-43.24951171875,67.24951171875,38.02294921875,25.97705078125
-43.84521484375,67.84521484375,35.87548828125,24.12451171875
-46.26611328125,66.26611328125,35.84423828125,24.15576171875
-38.2734375,74.2734375,46.06396484375,33.93603515625
-51.7568359375,59.7568359375,52.6259765625,39.3740234375
-36.82958984375,72.82958984375,47.55029296875,32.44970703125
-49.82177734375,57.82177734375,52.7763671875,35.2236328125
-33.15283203125,73.15283203125,40.20751953125,19.79248046875
-39.1220703125,67.1220703125,43.748046875,20.251953125
-39.748046875,67.748046875,59.31396484375,32.68603515625
-50.7353515625,58.7353515625,46.810546875,17.189453125
-35.61962890625,75.61962890625,58.1083984375,25.8916015625
-39.994140625,71.994140625,47.06103515625,12.93896484375
-53.6884765625,57.6884765625,51.55615234375,16.44384765625
-38.80810546875,70.80810546875,63.5654296875,28.4345703125
-47.646484375,59.646484375,55.16259765625,20.83740234375
-40.5498046875,64.5498046875,62.50537109375,29.49462890625
-49.810546875,53.810546875,63.802734375,32.197265625
-39.595703125,63.595703125,57.25634765625,26.74365234375
-41.9033203125,61.9033203125,46.99609375,17.00390625
-40.57470703125,64.57470703125,45.0439453125,14.9560546875
-49.37353515625,57.37353515625,59.31982421875,28.68017578125
-36.0986328125,72.0986328125,57.685546875,26.314453125
-48.68359375,60.68359375,54.00146484375,21.99853515625
-35.2275390625,75.2275390625,52.173828125,19.826171875
-41.9306640625,69.9306640625,64.1767578125,31.8232421875
-40.97412109375,72.97412109375,54.0615234375,21.9384765625
-40.37109375,76.37109375,49.93603515625,18.06396484375
-43.90576171875,75.90576171875,61.92236328125,30.07763671875
-53.18896484375,69.18896484375,66.10986328125,33.89013671875
-49.845703125,73.845703125,56.5166015625,23.4833984375
-57.67822265625,65.67822265625,49.07763671875,14.92236328125
-52.75927734375,68.75927734375,67.67236328125,32.32763671875
-53.390625,65.390625,64.173828125,27.826171875
-39.98876953125,75.98876953125,64.47998046875,27.52001953125
-40.9453125,72.9453125,60.5390625,23.4609375
-40.490234375,72.490234375,50.3525390625,13.6474609375
-54.60693359375,58.60693359375,59.9775390625,24.0224609375
-51.05517578125,63.05517578125,67.501953125,32.498046875
-51.48046875,63.48046875,49.0185546875,14.9814453125
-49.57177734375,65.57177734375,66.61669921875,33.38330078125
-41.19091796875,73.19091796875,46.37158203125,13.62841796875
-48.41259765625,64.41259765625,58.33203125,25.66796875
-37.4931640625,73.4931640625,54.4794921875,21.5205078125
-38.7734375,70.7734375,64.70361328125,31.29638671875
-46.537109375,62.537109375,50.82763671875,17.17236328125
-46.8798828125,62.8798828125,66.6787109375,33.3212890625
-53.64990234375,57.64990234375,62.1865234375,29.8134765625
-48.51513671875,64.51513671875,51.43115234375,20.56884765625
-37.1181640625,77.1181640625,56.62646484375,27.37353515625
-53.24609375,61.24609375,44.025390625,15.974609375
-40.93603515625,72.93603515625,63.7998046875,36.2001953125
-44.4765625,68.4765625,59.94580078125,32.05419921875
-40.2861328125,72.2861328125,50.287109375,21.712890625
-46.69580078125,66.69580078125,52.5751953125,23.4248046875
-55.74609375,59.74609375,64.6201171875,35.3798828125
-53.10888671875,65.10888671875,62.37158203125,33.62841796875
-54.23681640625,66.23681640625,63.9052734375,36.0947265625
-58.63330078125,62.63330078125,63.33837890625,36.66162109375
-46.1259765625,74.1259765625,52.75146484375,27.24853515625
-48.970703125,68.970703125,58.1552734375,33.8447265625
-37.74462890625,77.74462890625,55.50927734375,32.49072265625
-47.0791015625,67.0791015625,42.77783203125,21.22216796875
-41.3642578125,73.3642578125,51.98779296875,32.01220703125
-56.57275390625,60.57275390625,43.2578125,24.7421875
-46.27783203125,74.27783203125,48.77392578125,31.22607421875
-59.85595703125,63.85595703125,48.71533203125,31.28466796875
-58.765625,66.765625,49.1611328125,30.8388671875
-42.763671875,82.763671875,48.02001953125,27.97998046875
-43.97802734375,79.97802734375,61.04345703125,38.95654296875
-42.81640625,78.81640625,41.90771484375,18.09228515625
-57.76318359375,61.76318359375,46.36328125,21.63671875
-55.1669921875,63.1669921875,60.34521484375,35.65478515625
-49.08837890625,69.08837890625,58.01220703125,33.98779296875
-43.29833984375,75.29833984375,43.67138671875,20.32861328125
-49.41455078125,69.41455078125,51.6435546875,28.3564453125
-55.1162109375,63.1162109375,42.109375,17.890625
-48.3251953125,68.3251953125,55.0166015625,28.9833984375
-51.2607421875,63.2607421875,64.09033203125,35.90966796875
-52.3154296875,60.3154296875,60.9423828125,31.0576171875
-47.84619140625,63.84619140625,59.24951171875,28.75048828125
-45.9765625,65.9765625,46.90234375,17.09765625
-40.5458984375,72.5458984375,50.0517578125,21.9482421875
-39.19775390625,75.19775390625,57.03515625,30.96484375
-37.56689453125,77.56689453125,44.21923828125,19.78076171875
-37.4482421875,77.4482421875,43.85302734375,20.14697265625
-52.90478515625,60.90478515625,53.98974609375,30.01025390625
-36.23876953125,76.23876953125,60.50390625,35.49609375
-37.85888671875,73.85888671875,43.17333984375,16.82666015625
-36.0771484375,76.0771484375,55.7861328125,28.2138671875
-36.93505859375,76.93505859375,54.21435546875,25.78564453125
-56.166015625,60.166015625,44.4384765625,15.5615234375
-53.31591796875,65.31591796875,48.517578125,19.482421875
-41.962890625,77.962890625,44.53955078125,15.46044921875
-43.91650390625,75.91650390625,48.55859375,19.44140625
-51.30859375,67.30859375,46.5654296875,17.4345703125
-56.53515625,60.53515625,50.50634765625,21.49365234375
-54.0673828125,62.0673828125,54.33056640625,25.66943359375
-56.220703125,60.220703125,50.044921875,21.955078125
-44.994140625,72.994140625,57.73388671875,30.26611328125
-58.06689453125,62.06689453125,61.52880859375,34.47119140625
-42.96044921875,78.96044921875,63.541015625,36.458984375
-47.2744140625,75.2744140625,57.794921875,30.205078125
-54.869140625,66.869140625,50.19091796875,21.80908203125
-49.93359375,69.93359375,62.52587890625,33.47412109375
-38.90380859375,78.90380859375,50.564453125,21.435546875
-46.27734375,70.27734375,44.1279296875,15.8720703125
-56.390625,60.390625,47.1728515625,20.8271484375
-51.26708984375,67.26708984375,55.83154296875,32.16845703125
-52.591796875,68.591796875,58.39501953125,37.60498046875
-41.83935546875,81.83935546875,39.23095703125,20.76904296875
-50.5,74.5,40.65625,23.34375
-46.29833984375,78.29833984375,40.8212890625,23.1787109375
-41.32080078125,81.32080078125,41.66796875,22.33203125
-49.98291015625,69.98291015625,56.9609375,35.0390625
-38.8486328125,78.8486328125,46.3681640625,21.6318359375
-50.3779296875,66.3779296875,57.5615234375,30.4384765625
-46.71728515625,70.71728515625,64.314453125,35.685546875
-39.6220703125,79.6220703125,62.56640625,33.43359375
-52.57666015625,68.57666015625,60.43017578125,31.56982421875
-51.03662109375,71.03662109375,56.12548828125,27.87451171875
-44.70556640625,76.70556640625,55.87158203125,28.12841796875
-39.6904296875,79.6904296875,63.7939453125,36.2060546875
-48.4609375,68.4609375,57.8857421875,30.1142578125
-41.6181640625,73.6181640625,48.0439453125,19.9560546875
-51.59619140625,63.59619140625,44.13134765625,15.86865234375
-48.43994140625,68.43994140625,50.04052734375,21.95947265625
-41.7724609375,77.7724609375,45.734375,18.265625
-50.95654296875,70.95654296875,47.26171875,20.73828125
-51.39599609375,71.39599609375,54.732421875,29.267578125
-42.8291015625,78.8291015625,58.28125,33.71875
-51.46728515625,67.46728515625,46.01708984375,21.98291015625
-37.9052734375,77.9052734375,59.99365234375,36.00634765625
-48.82470703125,64.82470703125,48.2021484375,23.7978515625
-38.67138671875,74.67138671875,54.57666015625,29.42333984375
-49.4501953125,65.4501953125,53.00830078125,26.99169921875
-38.73681640625,78.73681640625,47.380859375,20.619140625
-43.89208984375,75.89208984375,51.59423828125,24.40576171875
-44.39599609375,76.39599609375,49.60107421875,22.39892578125
-46.1201171875,74.1201171875,45.42138671875,18.57861328125
-47.380859375,71.380859375,59.1279296875,32.8720703125
-44.73046875,72.73046875,48.82080078125,23.17919921875
-50.6279296875,66.6279296875,52.59130859375,27.40869140625
-57.1689453125,61.1689453125,50.4833984375,25.5166015625
-42.05810546875,78.05810546875,50.4765625,25.5234375
-56.8193359375,64.8193359375,46.4931640625,21.5068359375
-41.1171875,81.1171875,52.44921875,27.55078125
-40.9677734375,80.9677734375,42.29736328125,17.70263671875
-50.71044921875,70.71044921875,44.041015625,19.958984375
-52.759765625,68.759765625,55.708984375,32.291015625
-45.3193359375,77.3193359375,53.33544921875,30.66455078125
-52.22802734375,72.22802734375,42.9443359375,21.0556640625
-59.03564453125,67.03564453125,50.57275390625,29.42724609375
-59.26416015625,67.26416015625,60.283203125,39.716796875
-50.71044921875,74.71044921875,44.171875,23.828125
-41.60498046875,81.60498046875,60.33154296875,39.66845703125
-46.49951171875,74.49951171875,56.7998046875,35.2001953125
-55.9609375,63.9609375,45.51513671875,22.48486328125
-42.24853515625,78.24853515625,46.31396484375,21.68603515625
-59.1630859375,63.1630859375,62.9814453125,37.0185546875
-42.15283203125,82.15283203125,55.3408203125,28.6591796875
-50.62060546875,74.62060546875,47.34521484375,20.65478515625
-46.2705078125,78.2705078125,55.1044921875,28.8955078125
-59.29296875,63.29296875,54.83935546875,29.16064453125
-40.26123046875,80.26123046875,42.779296875,17.220703125
-55.77587890625,63.77587890625,43.07080078125,16.92919921875
-46.09716796875,74.09716796875,43.70556640625,16.29443359375
-56.9970703125,64.9970703125,54.517578125,25.482421875
-57.923828125,65.923828125,49.23779296875,18.76220703125
-50.37451171875,74.37451171875,57.59423828125,26.40576171875
-46.20556640625,78.20556640625,45.4248046875,14.5751953125
-45.68994140625,77.68994140625,50.75048828125,21.24951171875
-57.2978515625,65.2978515625,53.759765625,26.240234375
-53.3603515625,69.3603515625,50.7294921875,25.2705078125
-43.83935546875,79.83935546875,59.9130859375,36.0869140625
-48.34033203125,76.34033203125,55.451171875,32.548828125
-54.35595703125,70.35595703125,47.34716796875,24.65283203125
-43.60205078125,79.60205078125,61.501953125,38.498046875
-48.21630859375,72.21630859375,59.775390625,36.224609375
-54.71826171875,62.71826171875,50.0390625,25.9609375
-47.72900390625,67.72900390625,52.20703125,27.79296875
-53.64794921875,61.64794921875,48.2412109375,23.7587890625
-56.4697265625,60.4697265625,46.1435546875,21.8564453125
-57.82421875,61.82421875,61.95703125,38.04296875
-47.193359375,75.193359375,55.7587890625,32.2412109375
-48.1689453125,76.1689453125,51.63623046875,28.36376953125
-48.59326171875,76.59326171875,55.6396484375,32.3603515625
-52.5439453125,72.5439453125,61.7470703125,38.2529296875
-52.19775390625,72.19775390625,55.87744140625,32.12255859375
-59.7060546875,63.7060546875,61.94091796875,38.05908203125
-53.1435546875,69.1435546875,57.900390625,34.099609375
-48.56396484375,72.56396484375,57.79052734375,34.20947265625
-52.076171875,68.076171875,51.6943359375,28.3056640625
-39.84814453125,79.84814453125,51.70068359375,28.29931640625
-44.0166015625,76.0166015625,49.8564453125,26.1435546875
-46.5634765625,74.5634765625,60.14208984375,35.85791015625
-53.27001953125,69.27001953125,58.48291015625,33.51708984375
-55.81787109375,67.81787109375,62.79541015625,37.20458984375
-51.9716796875,71.9716796875,51.0390625,24.9609375
-43.7314453125,79.7314453125,55.22314453125,28.77685546875
-49.34765625,73.34765625,55.3759765625,28.6240234375
-45.189453125,77.189453125,45.4951171875,18.5048828125
-53.521484375,69.521484375,43.525390625,16.474609375
-52.328125,72.328125,63.38818359375,36.61181640625
-47.29736328125,79.29736328125,53.04443359375,26.95556640625
-55.98046875,71.98046875,60.54833984375,35.45166015625
-46.05517578125,82.05517578125,42.0537109375,17.9462890625
-43.5439453125,83.5439453125,53.767578125,30.232421875
-52.82568359375,72.82568359375,57.85791015625,34.14208984375
-58.43603515625,66.43603515625,60.36572265625,35.63427734375
-44.76708984375,80.76708984375,43.1572265625,16.8427734375
-43.83349609375,83.83349609375,47.97412109375,20.02587890625
-45.25341796875,85.25341796875,56.55712890625,27.44287109375
-60.43798828125,72.43798828125,50.77392578125,21.22607421875
-64.892578125,68.892578125,48.65869140625,19.34130859375
-60.451171875,72.451171875,44.35205078125,15.64794921875
-45.333984375,85.333984375,49.99609375,22.00390625
-55.9775390625,71.9775390625,57.64453125,30.35546875
-60.73876953125,64.73876953125,51.2470703125,24.7529296875
-47.62158203125,75.62158203125,52.71826171875,27.28173828125
-50.18115234375,70.18115234375,52.0458984375,27.9541015625
-47.6484375,67.6484375,55.3994140625,32.6005859375
-37.2138671875,69.2138671875,51.15185546875,28.84814453125
-34.3583984375,58.3583984375,49.76708984375,26.23291015625
-25.060546875,49.060546875,53.58056640625,26.41943359375
-7.73828125,43.73828125,50.60546875,17.39453125
7.09130859375,32.90869140625,56.4765625,15.5234375
15.275390625,12.724609375,66.57958984375,17.42041015625
19.31494140625,-15.31494140625,74.2880859375,17.7119140625
46.279296875,-26.279296875,65.17578125,2.82421875
67.3544921875,-51.3544921875,73.1318359375,6.8681640625
97.26513671875,-77.26513671875,76.345703125,7.654296875
131.81982421875,-107.81982421875,71.20361328125,0.79638671875
157.7802734375,-153.7802734375,70.10302734375,-2.10302734375
201.10205078125,-185.10205078125,87.27783203125,12.72216796875
231.4404296875,-227.4404296875,88.7314453125,11.2685546875
270.66650390625,-254.66650390625,74.27490234375,-6.27490234375
293.24072265625,-289.24072265625,71.66162109375,-11.66162109375
330.35205078125,-298.35205078125,74.724609375,-10.724609375
345.8857421875,-317.8857421875,91.4580078125,4.5419921875
364.26171875,-324.26171875,82.0029296875,-6.0029296875
362.19970703125,-342.19970703125,92.54345703125,3.45654296875
360.4560546875,-352.4560546875,95.158203125,4.841796875
371.62939453125,-343.62939453125,75.71142578125,-15.71142578125
370.0771484375,-342.0771484375,83.88134765625,-7.88134765625
363.97607421875,-339.97607421875,83.3173828125,-7.3173828125
351.42333984375,-339.42333984375,87.80712890625,0.19287109375
338.5341796875,-334.5341796875,81.3896484375,-1.3896484375
331.5302734375,-319.5302734375,82.359375,5.640625
328.78173828125,-296.78173828125,73.21435546875,2.78564453125
310.79443359375,-286.79443359375,68.5146484375,3.4853515625
290.13623046875,-278.13623046875,66.68212890625,5.31787109375
281.30908203125,-257.30908203125,67.84521484375,8.15478515625
274.62255859375,-234.62255859375,77.79345703125,18.20654296875
258.11376953125,-222.11376953125,78.07763671875,17.92236328125
241.5732421875,-209.5732421875,62.236328125,1.763671875
228.68017578125,-192.68017578125,61.99072265625,2.00927734375
213.19287109375,-177.19287109375,59.3486328125,0.6513671875
189.13720703125,-169.13720703125,72.52880859375,15.47119140625
170.873046875,-154.873046875,67.818359375,12.181640625
157.02001953125,-137.02001953125,69.43115234375,14.56884765625
146.24365234375,-118.24365234375,65.4296875,10.5703125
125.0146484375,-113.0146484375,57.71044921875,2.28955078125
121.4453125,-93.4453125,74.06005859375,17.93994140625
103.26953125,-91.26953125,76.22412109375,19.77587890625
101.98291015625,-73.98291015625,58.021484375,1.978515625
83.06591796875,-75.06591796875,65.416015625,10.583984375
90.19189453125,-50.19189453125,68.5302734375,15.4697265625
75.341796875,-47.341796875,73.58447265625,22.41552734375
66.77001953125,-38.77001953125,56.8017578125,7.1982421875
50.8486328125,-38.8486328125,68.33349609375,19.66650390625
53.837890625,-21.837890625,54.20751953125,5.79248046875
39.69580078125,-23.69580078125,56.34326171875,7.65673828125
42.04443359375,-10.04443359375,60.58203125,11.41796875
36.34423828125,-4.34423828125,58.74609375,9.25390625
20.1982421875,-8.1982421875,62.708984375,13.291015625
19.6220703125,4.3779296875,62.4453125,13.5546875
17.10009765625,14.89990234375,64.037109375,15.962890625
13.36865234375,22.63134765625,61.61962890625,14.38037109375
-4.96875,12.96875,71.30224609375,24.69775390625
4.22607421875,27.77392578125,69.107421875,22.892578125
0.5068359375,27.4931640625,60.96728515625,15.03271484375
-8.96337890625,20.96337890625,66.78125,21.21875
-1.01025390625,33.01025390625,64.4931640625,19.5068359375
-2.0537109375,38.0537109375,52.13818359375,7.86181640625
-7.93359375,39.93359375,51.806640625,8.193359375
-26.0234375,30.0234375,69.56494140625,26.43505859375
-25.5712890625,37.5712890625,55.39306640625,12.60693359375
-16.0546875,52.0546875,59.185546875,16.814453125
-17.39794921875,53.39794921875,62.830078125,21.169921875
-21.95458984375,49.95458984375,52.291015625,11.708984375
-34.29931640625,38.29931640625,55.65576171875,16.34423828125
-18.94140625,54.94140625,69.111328125,30.888671875
-32.1181640625,44.1181640625,60.85400390625,23.14599609375
-23.75146484375,55.75146484375,58.98193359375,21.01806640625
-39.5537109375,43.5537109375,69.4169921875,30.5830078125
-25.20556640625,61.20556640625,65.9267578125,26.0732421875
-26.49267578125,62.49267578125,52.2236328125,11.7763671875
-25.365234375,65.365234375,68.0966796875,27.9033203125
-27.916015625,63.916015625,69.4951171875,30.5048828125
-34.30908203125,58.30908203125,68.52294921875,31.47705078125
-36.6953125,56.6953125,53.3720703125,18.6279296875
-43.1611328125,51.1611328125,66.24951171875,33.75048828125
-31.7138671875,63.7138671875,49.3173828125,18.6826171875
-32.3134765625,64.3134765625,44.68408203125,15.31591796875
-30.9306640625,66.9306640625,48.39794921875,19.60205078125
-31.59521484375,67.59521484375,44.439453125,15.560546875
-48.3896484375,52.3896484375,46.69677734375,17.30322265625
-47.39111328125,55.39111328125,64.9775390625,35.0224609375
-34.5966796875,70.5966796875,65.06005859375,34.93994140625
-49.884765625,57.884765625,52.78955078125,23.21044921875
-39.0390625,71.0390625,56.16259765625,27.83740234375
-45.83837890625,65.83837890625,43.3671875,16.6328125
-40.17431640625,72.17431640625,60.716796875,35.283203125
-48.13818359375,64.13818359375,56.5283203125,31.4716796875
-38.0087890625,74.0087890625,42.9580078125,17.0419921875
-50.14453125,62.14453125,59.89453125,32.10546875
-44.80810546875,68.80810546875,56.98095703125,27.01904296875
-42.02978515625,74.02978515625,63.7626953125,32.2373046875
-57.5693359375,61.5693359375,65.9072265625,34.0927734375
-41.02099609375,81.02099609375,51.37255859375,20.62744140625
-54.00927734375,70.00927734375,46.43310546875,17.56689453125
-52.37890625,72.37890625,47.54736328125,20.45263671875
-50.2568359375,74.2568359375,47.13818359375,20.86181640625
-49.95947265625,73.95947265625,51.3916015625,24.6083984375
-51.81640625,71.81640625,58.177734375,29.822265625
-46.00244140625,78.00244140625,51.11328125,20.88671875
-42.4765625,82.4765625,57.74853515625,26.25146484375
-53.03076171875,73.03076171875,51.76904296875,20.23095703125
-45.41259765625,81.41259765625,63.1279296875,32.8720703125
-59.4609375,67.4609375,60.0556640625,31.9443359375
-57.1982421875,69.1982421875,60.93603515625,35.06396484375
-44.81591796875,80.81591796875,54.1337890625,29.8662109375
-52.56201171875,72.56201171875,43.82666015625,20.17333984375
-46.58935546875,78.58935546875,57.95458984375,34.04541015625
-42.83154296875,82.83154296875,42.27001953125,17.72998046875
-47.01220703125,79.01220703125,48.4853515625,23.5146484375
-54.794921875,70.794921875,44.41943359375,19.58056640625
-50.02001953125,74.02001953125,46.0712890625,21.9287109375
-56.8720703125,64.8720703125,45.59033203125,22.40966796875
-49.85009765625,69.85009765625,45.16748046875,22.83251953125
-53.5361328125,65.5361328125,50.927734375,29.072265625
-42.2685546875,78.2685546875,50.87060546875,29.12939453125
-49.92626953125,73.92626953125,40.892578125,19.107421875
-59.93017578125,67.93017578125,50.869140625,29.130859375
-45.50390625,85.50390625,44.7353515625,23.2646484375
-50.068359375,82.068359375,52.525390625,31.474609375
-49.552734375,81.552734375,56.34033203125,35.65966796875
-44.44580078125,84.44580078125,56.27880859375,35.72119140625
-53.51513671875,73.51513671875,42.37255859375,21.62744140625
-47.37939453125,79.37939453125,46.58544921875,25.41455078125
-60.17578125,68.17578125,60.85498046875,39.14501953125
-59.52880859375,71.52880859375,55.1435546875,32.8564453125
-62.81787109375,70.81787109375,51.4609375,28.5390625
-61.55615234375,73.55615234375,53.84814453125,30.15185546875
-47.65234375,87.65234375,58.337890625,33.662109375
-57.40771484375,77.40771484375,56.9208984375,31.0791015625
-51.27880859375,83.27880859375,63.525390625,36.474609375
-47.56640625,87.56640625,60.03515625,31.96484375
-50.23193359375,86.23193359375,48.32470703125,19.67529296875
-64.95556640625,72.95556640625,52.3037109375,23.6962890625
-65.36669921875,73.36669921875,53.95361328125,26.04638671875
-65.28515625,73.28515625,53.3388671875,26.6611328125
-48.8203125,88.8203125,56.5869140625,31.4130859375
-56.30078125,80.30078125,47.837890625,24.162109375
-50.07861328125,86.07861328125,51.2041015625,28.7958984375
-60.35302734375,76.35302734375,42.75927734375,21.24072265625
-57.0791015625,81.0791015625,58.5302734375,37.4697265625
-58.0029296875,82.0029296875,52.49560546875,31.50439453125
-56.80126953125,84.80126953125,40.5712890625,19.4287109375
-65.2333984375,77.2333984375,40.6220703125,19.3779296875
-55.2431640625,87.2431640625,48.5068359375,27.4931640625
-54.9453125,86.9453125,48.158203125,27.841796875
-52.52783203125,88.52783203125,45.65869140625,26.34130859375
-60.146484375,80.146484375,39.24658203125,20.75341796875
-55.86279296875,83.86279296875,45.23974609375,26.76025390625
-51.66064453125,87.66064453125,47.8828125,28.1171875
-61.50048828125,77.50048828125,55.220703125,32.779296875
-67.38818359375,71.38818359375,55.03076171875,28.96923828125
-51.3935546875,87.3935546875,60.8857421875,31.1142578125
-51.60595703125,87.60595703125,46.296875,13.703125
-58.0576171875,82.0576171875,60.88134765625,27.11865234375
-50.6748046875,90.6748046875,66.48046875,33.51953125
-59.28662109375,83.28662109375,55.19677734375,24.80322265625
-65.7099609375,77.7099609375,55.33837890625,28.66162109375
-67.86083984375,75.86083984375,47.318359375,24.681640625
-51.8203125,91.8203125,39.53515625,20.46484375
-63.81494140625,79.81494140625,56.28466796875,39.71533203125
-58.07177734375,86.07177734375,41.720703125,26.279296875
-62.66552734375,82.66552734375,37.849609375,22.150390625
-67.45751953125,79.45751953125,46.5537109375,29.4462890625
-64.17431640625,84.17431640625,49.61181640625,30.38818359375
-64.560546875,84.560546875,52.7392578125,31.2607421875
-72.5146484375,76.5146484375,61.6533203125,38.3466796875
-66.1279296875,82.1279296875,60.177734375,35.822265625
-61.6328125,85.6328125,48.32958984375,23.67041015625
-53.28369140625,93.28369140625,60.3310546875,35.6689453125
-55.2451171875,91.2451171875,50.50732421875,25.49267578125
-67.52685546875,79.52685546875,43.1240234375,16.8759765625
-61.99365234375,85.99365234375,54.24072265625,25.75927734375
-62.439453125,86.439453125,61.67431640625,30.32568359375
-70.67724609375,78.67724609375,65.0693359375,30.9306640625
-72.62548828125,76.62548828125,66.06640625,29.93359375
-60.3427734375,88.3427734375,50.44287109375,13.55712890625
-63.99755859375,83.99755859375,62.21142578125,25.78857421875
-53.79833984375,93.79833984375,49.60986328125,14.39013671875
-65.91552734375,81.91552734375,54.99462890625,21.00537109375
-64.4208984375,84.4208984375,64.681640625,31.318359375
-63.24951171875,87.24951171875,66.80029296875,33.19970703125
-74.22021484375,78.22021484375,51.21728515625,16.78271484375
-63.09765625,91.09765625,65.59130859375,30.40869140625
-75.6806640625,79.6806640625,63.54150390625,28.45849609375
-71.8759765625,83.8759765625,60.8486328125,27.1513671875
-65.7109375,89.7109375,65.5927734375,34.4072265625
-71.29833984375,83.29833984375,58.13427734375,29.86572265625
-68.76708984375,84.76708984375,44.94775390625,19.05224609375
-66.2236328125,86.2236328125,46.39453125,21.60546875
-57.75927734375,93.75927734375,60.5546875,35.4453125
-65.49853515625,85.49853515625,55.1875,28.8125
-63.60888671875,87.60888671875,49.86181640625,22.13818359375
-66.2080078125,86.2080078125,64.16845703125,35.83154296875
-61.23388671875,93.23388671875,47.92919921875,20.07080078125
-68.3857421875,88.3857421875,61.28466796875,34.71533203125
-67.20458984375,91.20458984375,52.61376953125,27.38623046875
-59.30419921875,99.30419921875,56.3232421875,31.6767578125
-76.58935546875,80.58935546875,54.6142578125,29.3857421875
-75.3349609375,79.3349609375,57.34228515625,30.65771484375
-62.056640625,90.056640625,56.0634765625,27.9365234375
-67.2421875,83.2421875,44.26123046875,15.73876953125
-57.115234375,93.115234375,43.63232421875,16.36767578125
-55.5546875,95.5546875,50.2841796875,25.7158203125
-60.20263671875,92.20263671875,42.71923828125,21.28076171875
-66.67333984375,86.67333984375,45.60205078125,26.39794921875
-70.75439453125,82.75439453125,51.42626953125,32.57373046875
-68.48388671875,84.48388671875,44.26806640625,23.73193359375
-58.09814453125,94.09814453125,47.755859375,24.244140625
-73.8828125,77.8828125,63.263671875,36.736328125
-64.01318359375,88.01318359375,62.22119140625,33.77880859375
-68.4541015625,84.4541015625,58.369140625,29.630859375
-60.98876953125,92.98876953125,53.822265625,26.177734375
-67.3388671875,87.3388671875,58.953125,33.046875
-73.33642578125,81.33642578125,44.177734375,19.822265625
-65.00732421875,89.00732421875,57.77001953125,34.22998046875
-66.53125,86.53125,43.78125,20.21875
-64.10791015625,88.10791015625,42.1015625,17.8984375
-59.828125,91.828125,56.56884765625,31.43115234375
-65.6513671875,85.6513671875,43.07568359375,16.92431640625
-59.48681640625,91.48681640625,49.59765625,22.40234375
-71.3203125,79.3203125,62.15185546875,33.84814453125
-65.28173828125,85.28173828125,46.728515625,17.271484375
-73.58740234375,77.58740234375,55.23974609375,24.76025390625
-56.3916015625,96.3916015625,61.5126953125,30.4873046875
-57.62451171875,97.62451171875,61.3447265625,30.6552734375
-62.96337890625,94.96337890625,60.60009765625,31.39990234375
-69.9697265625,89.9697265625,47.30859375,20.69140625
-60.3349609375,100.3349609375,57.68896484375,34.31103515625
-70.0751953125,90.0751953125,40.08349609375,19.91650390625
-71.54052734375,87.54052734375,38.79638671875,21.20361328125
-77.22509765625,81.22509765625,43.95458984375,28.04541015625
-67.49658203125,91.49658203125,47.462890625,32.537109375
-76.39306640625,84.39306640625,37.10107421875,22.89892578125
-75.60986328125,87.60986328125,54.68359375,41.31640625
-68.6689453125,96.6689453125,42.19677734375,29.80322265625
-81.16943359375,85.16943359375,49.81982421875,38.18017578125
-66.9775390625,98.9775390625,35.82958984375,24.17041015625
-72.2529296875,92.2529296875,36.4404296875,23.5595703125
-63.31591796875,99.31591796875,37.66796875,22.33203125
-66.46875,94.46875,43.2880859375,24.7119140625
-63.849609375,95.849609375,42.91796875,21.08203125
-63.39892578125,95.39892578125,60.185546875,35.814453125
-62.94140625,94.94140625,50.88623046875,25.11376953125
-66.3369140625,90.3369140625,53.0634765625,26.9365234375
-61.60546875,93.60546875,44.96435546875,19.03564453125
-62.94384765625,90.94384765625,50.89794921875,25.10205078125
-72.6103515625,80.6103515625,45.07568359375,18.92431640625
-60.75439453125,92.75439453125,45.5146484375,18.4853515625
-71.302734375,83.302734375,58.0615234375,29.9384765625
-71.9677734375,83.9677734375,62.509765625,33.490234375
-66.39208984375,90.39208984375,60.74072265625,31.25927734375
-64.33935546875,92.33935546875,50.7900390625,21.2099609375
-65.830078125,89.830078125,52.80517578125,23.19482421875
-57.13330078125,97.13330078125,50.9423828125,21.0576171875
-72.61083984375,80.61083984375,59.2646484375,28.7353515625
-72.5078125,80.5078125,51.71923828125,20.28076171875
-62.8291015625,90.8291015625,54.1826171875,21.8173828125
-63.37353515625,91.37353515625,50.52734375,17.47265625
-73.890625,81.890625,48.6708984375,15.3291015625
-76.24169921875,80.24169921875,64.58447265625,31.41552734375
-64.45068359375,92.45068359375,52.2841796875,19.7158203125
-70.6318359375,86.6318359375,45.810546875,14.189453125
-62.86767578125,94.86767578125,63.21337890625,32.78662109375
-67.1357421875,91.1357421875,50.55126953125,21.44873046875
-69.341796875,89.341796875,45.87353515625,18.12646484375
-61.4296875,97.4296875,63.2158203125,36.7841796875
-69.46044921875,89.46044921875,44.59423828125,19.40576171875
-65.57421875,93.57421875,48.02490234375,23.97509765625
-75.8740234375,83.8740234375,49.54736328125,26.45263671875
-66.30419921875,94.30419921875,61.234375,38.765625
-76.64404296875,84.64404296875,59.171875,36.828125
-78.6279296875,82.6279296875,45.4228515625,22.5771484375
-74.1337890625,86.1337890625,61.9921875,38.0078125
-69.32275390625,89.32275390625,50.79833984375,25.20166015625
-76.59814453125,80.59814453125,53.67724609375,26.32275390625
-64.40478515625,92.40478515625,58.421875,29.578125
-72.9755859375,84.9755859375,52.853515625,23.146484375
-72.201171875,88.201171875,60.89404296875,31.10595703125
-75.6806640625,87.6806640625,50.59033203125,21.40966796875
-76.9267578125,88.9267578125,52.10498046875,23.89501953125
-75.59912109375,91.59912109375,51.64208984375,24.35791015625
-69.65673828125,97.65673828125,55.3681640625,28.6318359375
-67.349609375,99.349609375,45.3447265625,18.6552734375
-75.0537109375,91.0537109375,61.5166015625,34.4833984375
-69.0517578125,97.0517578125,49.76171875,22.23828125
-75.40283203125,91.40283203125,49.94873046875,22.05126953125
-63.9775390625,103.9775390625,61.984375,34.015625
-66.583984375,102.583984375,51.82275390625,24.17724609375
-65.07958984375,105.07958984375,49.46484375,22.53515625
-65.404296875,105.404296875,42.93896484375,17.06103515625
-67.54638671875,103.54638671875,44.28564453125,19.71435546875
-77.5087890625,93.5087890625,53.53955078125,30.46044921875
-69.31787109375,101.31787109375,48.74951171875,27.25048828125
-81.05615234375,89.05615234375,46.001953125,25.998046875
-80.87548828125,88.87548828125,49.43701171875,30.56298828125
-72.94580078125,96.94580078125,53.205078125,34.794921875
-67.35400390625,103.35400390625,59.40283203125,40.59716796875
-66.01708984375,106.01708984375,42.017578125,21.982421875
-72.6806640625,100.6806640625,42.92626953125,21.07373046875
-71.03173828125,103.03173828125,61.94482421875,38.05517578125
-72.87109375,100.87109375,54.89453125,29.10546875
-76.23046875,96.23046875,55.6513671875,28.3486328125
-83.35107421875,87.35107421875,58.14599609375,29.85400390625
-74.55126953125,94.55126953125,44.34765625,15.65234375
-80.068359375,88.068359375,44.22705078125,15.77294921875
-73.97412109375,93.97412109375,49.7763671875,22.2236328125
-74.17822265625,94.17822265625,45.05859375,18.94140625
-78.49267578125,90.49267578125,44.25390625,19.74609375
-72.72607421875,96.72607421875,41.61572265625,18.38427734375
-78.771484375,90.771484375,45.35498046875,22.64501953125
-70.6640625,98.6640625,43.50146484375,20.49853515625
-72.58203125,96.58203125,45.86572265625,22.13427734375
-72.7470703125,96.7470703125,46.14453125,21.85546875
-77.29736328125,93.29736328125,60.0947265625,35.9052734375
-70.17822265625,102.17822265625,51.66748046875,28.33251953125
-83.13720703125,91.13720703125,49.03466796875,26.96533203125
-79.84423828125,95.84423828125,42.48828125,21.51171875
-82.08056640625,94.08056640625,42.27392578125,21.72607421875
-81.87646484375,93.87646484375,48.439453125,27.560546875
-81.5029296875,93.5029296875,50.79931640625,29.20068359375
-79.3076171875,95.3076171875,59.02294921875,36.97705078125
-85.49951171875,89.49951171875,40.82421875,19.17578125
-82.0263671875,94.0263671875,56.12890625,35.87109375
-72.6201171875,104.6201171875,51.12841796875,32.87158203125
-82.9697265625,94.9697265625,54.19482421875,37.80517578125
-84.9326171875,92.9326171875,41.705078125,26.294921875
-74.6044921875,102.6044921875,55.88134765625,40.11865234375
-78.24755859375,98.24755859375,50.69873046875,33.30126953125
-76.11962890625,100.11962890625,57.90673828125,38.09326171875
-80.33447265625,96.33447265625,61.1513671875,38.8486328125
-82.8125,94.8125,60.12646484375,35.87353515625
-87.34765625,91.34765625,62.69287109375,37.30712890625
-85.72509765625,93.72509765625,56.9013671875,31.0986328125
-87.83740234375,91.83740234375,44.92333984375,19.07666015625
-75.7216796875,103.7216796875,46.93017578125,21.06982421875
-87.509765625,91.509765625,63.00048828125,36.99951171875
-75.3310546875,103.3310546875,61.10107421875,34.89892578125
-79.24755859375,99.24755859375,51.1298828125,24.8701171875
-73.26025390625,105.26025390625,62.9990234375,37.0009765625
-71.33837890625,107.33837890625,48.69677734375,23.30322265625
-85.45849609375,93.45849609375,48.3037109375,23.6962890625
-71.623046875,107.623046875,53.966796875,30.033203125
-69.85302734375,109.85302734375,43.8212890625,20.1787109375
-70.16943359375,110.16943359375,61.92431640625,38.07568359375
-72.55810546875,108.55810546875,58.22314453125,33.77685546875
-72.94921875,108.94921875,62.59814453125,37.40185546875
-75.24072265625,107.24072265625,58.93310546875,33.06689453125
-81.36083984375,101.36083984375,47.16796875,20.83203125
-89.32568359375,93.32568359375,57.29248046875,30.70751953125
-87.26025390625,95.26025390625,53.3203125,26.6796875
-87.345703125,95.345703125,55.2607421875,28.7392578125
-71.7080078125,111.7080078125,49.1240234375,22.8759765625
-72.33349609375,112.33349609375,50.94580078125,25.05419921875
-75.0615234375,111.0615234375,44.791015625,19.208984375
-73.66552734375,113.66552734375,56.75439453125,31.24560546875
-87.96435546875,99.96435546875,44.9208984375,19.0791015625
-87.90771484375,99.90771484375,45.3203125,18.6796875
-91.5849609375,95.5849609375,61.88818359375,34.11181640625
-79.1865234375,107.1865234375,46.4697265625,17.5302734375
-78.93115234375,106.93115234375,56.86669921875,27.13330078125
-72.990234375,112.990234375,56.9072265625,27.0927734375
-77.43408203125,109.43408203125,60.5068359375,31.4931640625
-80.1982421875,108.1982421875,49.68603515625,22.31396484375
-83.087890625,107.087890625,54.5478515625,29.4521484375
-81.8310546875,109.8310546875,47.25537109375,24.74462890625
-76.1953125,116.1953125,50.02099609375,29.97900390625
-94.1123046875,98.1123046875,49.0947265625,30.9052734375
-87.74951171875,103.74951171875,50.72998046875,33.27001953125
-87.4423828125,103.4423828125,41.10498046875,22.89501953125
-93.52001953125,97.52001953125,40.244140625,19.755859375
-94.1025390625,98.1025390625,41.98046875,18.01953125
-79.00537109375,115.00537109375,43.9833984375,16.0166015625
-85.80810546875,109.80810546875,51.84521484375,20.15478515625
-78.048828125,118.048828125,57.2060546875,22.7939453125
-83.46240234375,111.46240234375,65.845703125,30.154296875
-90.12548828125,102.12548828125,57.74853515625,22.25146484375
-74.4521484375,114.4521484375,59.07421875,24.92578125
-73.013671875,113.013671875,50.1025390625,17.8974609375
-84.2939453125,100.2939453125,61.11962890625,30.88037109375
-86.4853515625,98.4853515625,56.3193359375,27.6806640625
-87.4306640625,99.4306640625,49.74462890625,22.25537109375
-92.7236328125,96.7236328125,61.28173828125,34.71826171875
-89.90478515625,101.90478515625,62.73779296875,37.26220703125
-88.65673828125,104.65673828125,61.947265625,38.052734375
-94.90966796875,98.90966796875,52.87353515625,31.12646484375
-86.8203125,106.8203125,41.63671875,22.36328125
-88.65087890625,104.65087890625,50.46240234375,33.53759765625
-78.62646484375,114.62646484375,51.5888671875,36.4111328125
-78.83251953125,114.83251953125,43.1953125,28.8046875
-85.2138671875,109.2138671875,39.37158203125,24.62841796875
-93.64697265625,101.64697265625,38.11962890625,21.88037109375
-84.02734375,112.02734375,57.3583984375,38.6416015625
-96.3056640625,100.3056640625,60.923828125,39.076171875
-92.45361328125,104.45361328125,44.5810546875,19.4189453125
-88.421875,108.421875,64.0693359375,35.9306640625
-78.13818359375,118.13818359375,53.1650390625,22.8349609375
-77.564453125,117.564453125,49.73974609375,18.26025390625
-92.76220703125,100.76220703125,51.7841796875,20.2158203125
-93.908203125,97.908203125,57.40087890625,26.59912109375
-89.20458984375,101.20458984375,48.76953125,19.23046875
-74.75,114.75,54.1123046875,25.8876953125
-76.45263671875,112.45263671875,47.638671875,20.361328125
-76.07373046875,112.07373046875,49.478515625,22.521484375
-89.38232421875,97.38232421875,57.61376953125,30.38623046875
-72.337890625,112.337890625,61.83251953125,34.16748046875
-85.16259765625,97.16259765625,61.77294921875,34.22705078125
-80.2666015625,100.2666015625,63.0595703125,36.9404296875
-72.04443359375,108.04443359375,49.49609375,26.50390625
-74.67578125,106.67578125,39.22021484375,20.77978515625
-76.0380859375,108.0380859375,40.70849609375,27.29150390625
-85.76806640625,101.76806640625,48.6181640625,39.3818359375
-75.43896484375,115.43896484375,43.49658203125,36.50341796875
-94.74951171875,98.74951171875,47.5322265625,40.4677734375
-89.6162109375,105.6162109375,40.4697265625,31.5302734375
-82.15478515625,114.15478515625,45.75390625,34.24609375
-92.56787109375,104.56787109375,54.826171875,41.173828125
-91.021484375,107.021484375,57.400390625,42.599609375
-81.5732421875,117.5732421875,55.59716796875,40.40283203125
-98.16796875,102.16796875,53.84033203125,38.15966796875
-86.69091796875,114.69091796875,58.58935546875,41.41064453125
-99.04345703125,103.04345703125,52.05322265625,31.94677734375
-93.18408203125,109.18408203125,42.04833984375,17.95166015625
-95.13818359375,107.13818359375,62.08642578125,33.91357421875
-92.96875,108.96875,61.6298828125,30.3701171875
-86.73583984375,114.73583984375,64.3564453125,31.6435546875
-94.47900390625,106.47900390625,50.2958984375,17.7041015625
-98.1943359375,102.1943359375,45.77587890625,14.22412109375
-89.83837890625,109.83837890625,51.234375,20.765625
-93.34375,105.34375,59.0068359375,28.9931640625
-84.65283203125,112.65283203125,65.19873046875,34.80126953125
-83.7880859375,111.7880859375,57.6796875,26.3203125
-88.88232421875,104.88232421875,60.1806640625,27.8193359375
-90.16259765625,102.16259765625,46.44580078125,13.55419921875
-87.85400390625,103.85400390625,66.34423828125,33.65576171875
-94.06005859375,98.06005859375,57.916015625,26.083984375
-76.67236328125,116.67236328125,59.322265625,28.677734375
-89.39697265625,105.39697265625,48.7392578125,19.2607421875
-93.89990234375,101.89990234375,54.25390625,25.74609375
-89.99658203125,105.99658203125,49.81494140625,22.18505859375
-93.7666015625,101.7666015625,57.2861328125,30.7138671875
-79.49169921875,115.49169921875,58.5751953125,33.4248046875
-95.47119140625,99.47119140625,61.74609375,38.25390625
-93.83935546875,101.83935546875,51.03466796875,28.96533203125
-78.47998046875,118.47998046875,42.73486328125,21.26513671875
-87.08837890625,111.08837890625,61.048828125,38.951171875
-83.31884765625,115.31884765625,49.96435546875,26.03564453125
-82.9501953125,114.9501953125,61.24462890625,34.75537109375
-91.97265625,103.97265625,52.5107421875,23.4892578125
-82.56982421875,110.56982421875,47.38916015625,16.61083984375
-85.03125,105.03125,59.6455078125,28.3544921875
-73.6494140625,113.6494140625,59.25439453125,28.74560546875
-82.63623046875,102.63623046875,50.39111328125,21.60888671875
-74.076171875,110.076171875,63.345703125,36.654296875
-79.91552734375,103.91552734375,62.41552734375,37.58447265625
-72.01171875,112.01171875,55.787109375,32.212890625
-78.2236328125,106.2236328125,45.4794921875,22.5205078125
-86.5009765625,98.5009765625,43.35888671875,20.64111328125
-80.91015625,104.91015625,45.21337890625,22.78662109375
-89.57958984375,97.57958984375,50.8662109375,29.1337890625
-88.58154296875,100.58154296875,40.25732421875,19.74267578125
-87.8408203125,103.8408203125,53.47802734375,34.52197265625
-89.11328125,105.11328125,44.73681640625,27.26318359375
-92.07568359375,104.07568359375,48.27001953125,31.72998046875
-94.48779296875,102.48779296875,40.23583984375,23.76416015625
-88.341796875,108.341796875,42.63671875,25.36328125
-91.89453125,103.89453125,43.32080078125,24.67919921875
-93.54052734375,101.54052734375,44.0478515625,23.9521484375
-89.58056640625,105.58056640625,48.59619140625,27.40380859375
-88.060546875,108.060546875,40.84228515625,19.15771484375
-92.763671875,104.763671875,42.80029296875,21.19970703125
-85.36328125,113.36328125,44.5908203125,23.4091796875
-83.62158203125,115.62158203125,40.37890625,19.62109375
-87.49755859375,111.49755859375,52.2958984375,31.7041015625
-79.138671875,119.138671875,58.38134765625,37.61865234375
-96.77197265625,100.77197265625,60.57080078125,39.42919921875
-80.57666015625,116.57666015625,54.7265625,33.2734375
-84.6240234375,112.6240234375,48.70751953125,27.29248046875
-90.89404296875,106.89404296875,50.4375,29.5625
-89.3359375,109.3359375,59.93798828125,40.06201171875
-97.90966796875,101.90966796875,47.3046875,28.6953125
-80.568359375,120.568359375,52.6591796875,35.3408203125
-91.21240234375,111.21240234375,48.1044921875,31.8955078125
-81.677734375,121.677734375,55.720703125,40.279296875
-85.7802734375,117.7802734375,39.57177734375,24.42822265625
-99.40869140625,103.40869140625,39.70458984375,24.29541015625
-90.61474609375,110.61474609375,58.12158203125,41.87841796875
-87.638671875,111.638671875,42.75439453125,25.24560546875
-94.8408203125,102.8408203125,49.47998046875,30.52001953125
-90.55859375,106.55859375,44.19140625,23.80859375
-84.962890625,112.962890625,42.9228515625,21.0771484375
-93.98388671875,105.98388671875,53.9609375,30.0390625
-93.38720703125,109.38720703125,55.87060546875,28.12939453125
-92.98779296875,112.98779296875,49.36865234375,14.63134765625
-94.8818359375,114.8818359375,53.10302734375,6.89697265625
-95.54931640625,119.54931640625,79.435546875,16.564453125
-101.72314453125,121.72314453125,84.3427734375,-0.3427734375
-114.08544921875,122.08544921875,91.45654296875,-19.45654296875
-120.92529296875,132.92529296875,116.21630859375,-24.21630859375
-117.94384765625,157.94384765625,134.0625,-38.0625
-132.302734375,168.302734375,152.56787109375,-52.56787109375
-142.888671875,182.888671875,161.45556640625,-77.45556640625
-166.67919921875,182.67919921875,174.50537109375,-98.50537109375
-173.02587890625,197.02587890625,199.45849609375,-107.45849609375
-175.73828125,211.73828125,199.9775390625,-139.9775390625
-198.978515625,202.978515625,225.6796875,-145.6796875
-203.052734375,211.052734375,234.2021484375,-166.2021484375
-196.24365234375,228.24365234375,243.25146484375,-183.25146484375
-210.736328125,222.736328125,258.6240234375,-190.6240234375
-218.62158203125,222.62158203125,280.1826171875,-188.1826171875
-203.94873046875,243.94873046875,271.83447265625,-211.83447265625
-210.7578125,242.7578125,297.5283203125,-197.5283203125
-217.09228515625,241.09228515625,281.31005859375,-221.31005859375
-222.97412109375,238.97412109375,291.35791015625,-215.35791015625
-218.38037109375,246.38037109375,300.00927734375,-208.00927734375
-231.24072265625,235.24072265625,291.72705078125,-215.72705078125
-213.484375,253.484375,303.01708984375,-203.01708984375
-231.12841796875,235.12841796875,290.322265625,-214.322265625
-226.34228515625,238.34228515625,285.9169921875,-217.9169921875
-213.43603515625,249.43603515625,287.84912109375,-215.84912109375
-218.7490234375,242.7490234375,289.98193359375,-213.98193359375
-218.515625,242.515625,300.115234375,-204.115234375
-222.75,238.75,296.12744140625,-208.12744140625
-213.23583984375,249.23583984375,292.05322265625,-212.05322265625
-217.609375,245.609375,298.0546875,-206.0546875
-227.51123046875,235.51123046875,296.30322265625,-208.30322265625
-228.74755859375,232.74755859375,300.85595703125,-204.85595703125
-227.400390625,231.400390625,285.59716796875,-221.59716796875
-219.82470703125,235.82470703125,286.28515625,-222.28515625
-218.52490234375,234.52490234375,294.67138671875,-214.67138671875
-207.94482421875,243.94482421875,292.62890625,-216.62890625
-222.24853515625,230.24853515625,292.220703125,-216.220703125
-217.22314453125,237.22314453125,285.67041015625,-221.67041015625
-214.3603515625,242.3603515625,291.25048828125,-215.25048828125
-215.07470703125,243.07470703125,299.15869140625,-207.15869140625
-214.974609375,242.974609375,287.44970703125,-219.44970703125
-210.0478515625,246.0478515625,294.03466796875,-214.03466796875
-214.666015625,238.666015625,290.73974609375,-218.73974609375
-223.39794921875,227.39794921875,301.3720703125,-209.3720703125
-210.740234375,238.740234375,289.78271484375,-221.78271484375
-222.90771484375,226.90771484375,303.888671875,-207.888671875
-213.7880859375,237.7880859375,287.68017578125,-223.68017578125
-209.0439453125,245.0439453125,305.19873046875,-205.19873046875
-214.27392578125,242.27392578125,292.5146484375,-216.5146484375
-217.15771484375,241.15771484375,295.72802734375,-211.72802734375
-219.5146484375,239.5146484375,288.9697265625,-216.9697265625
-221.30615234375,237.30615234375,292.38330078125,-212.38330078125
-224.59765625,232.59765625,294.08349609375,-210.08349609375
-211.537109375,243.537109375,282.091796875,-222.091796875
-224.34912109375,228.34912109375,288.2958984375,-216.2958984375
-209.32861328125,241.32861328125,298.47802734375,-206.47802734375
-214.7724609375,234.7724609375,282.4033203125,-222.4033203125
-222.86865234375,226.86865234375,293.9326171875,-209.9326171875
-205.591796875,245.591796875,289.10546875,-213.10546875
-214.697265625,238.697265625,290.13330078125,-210.13330078125
-211.80712890625,243.80712890625,299.3271484375,-199.3271484375
-226.56005859375,230.56005859375,284.97998046875,-212.97998046875
-224.73828125,232.73828125,291.24560546875,-207.24560546875
-210.3212890625,246.3212890625,288.0810546875,-212.0810546875
-215.49560546875,239.49560546875,287.28076171875,-215.28076171875
-224.60791015625,228.60791015625,294.599609375,-210.599609375
-220.06396484375,232.06396484375,297.87939453125,-209.87939453125
-220.193359375,232.193359375,293.08349609375,-217.08349609375
-221.11572265625,233.11572265625,304.23193359375,-208.23193359375
-218.6806640625,238.6806640625,287.279296875,-227.279296875
-210.50830078125,250.50830078125,302.056640625,-214.056640625
-216.13330078125,248.13330078125,302.32177734375,-214.32177734375
-219.17041015625,247.17041015625,305.91259765625,-209.91259765625
-217.44384765625,249.44384765625,292.8935546875,-220.8935546875
-225.0380859375,241.0380859375,301.60302734375,-209.60302734375
-216.2470703125,248.2470703125,298.53857421875,-210.53857421875
-221.46875,241.46875,304.1416015625,-204.1416015625
-223.06494140625,239.06494140625,296.5986328125,-212.5986328125
-219.216796875,243.216796875,287.77392578125,-223.77392578125
-215.84765625,247.84765625,299.3017578125,-215.3017578125
-216.64794921875,248.64794921875,298.77587890625,-218.77587890625
-227.20849609375,239.20849609375,301.9140625,-217.9140625
-225.21923828125,241.21923828125,304.6357421875,-216.6357421875
-228.61962890625,236.61962890625,311.03173828125,-211.03173828125
-219.62353515625,243.62353515625,291.271484375,-231.271484375
-212.5888671875,248.5888671875,291.50537109375,-231.50537109375
-219.83544921875,239.83544921875,309.79541015625,-213.79541015625
-209.49951171875,249.49951171875,296.1083984375,-228.1083984375
-219.515625,239.515625,310.3671875,-214.3671875
-213.7099609375,245.7099609375,302.5126953125,-222.5126953125
-227.92626953125,231.92626953125,308.52490234375,-216.52490234375
-218.099609375,242.099609375,300.40625,-224.40625
-228.2607421875,232.2607421875,308.13671875,-216.13671875
-210.4814453125,250.4814453125,297.671875,-225.671875
-220.810546875,240.810546875,292.98193359375,-228.98193359375
-229.2236328125,233.2236328125,294.10693359375,-226.10693359375
-225.6201171875,237.6201171875,301.17236328125,-217.17236328125
-221.87255859375,241.87255859375,300.35302734375,-216.35302734375
-217.90966796875,245.90966796875,299.802734375,-215.802734375
-225.76220703125,237.76220703125,301.58642578125,-213.58642578125
-217.53564453125,245.53564453125,293.6533203125,-221.6533203125
-213.3310546875,249.3310546875,307.8779296875,-207.8779296875
-223.189453125,239.189453125,302.1298828125,-214.1298828125
-225.0869140625,237.0869140625,296.353515625,-220.353515625
-222.98828125,238.98828125,302.58203125,-214.58203125
-224.88037109375,236.88037109375,290.896484375,-226.896484375
-212.771484375,248.771484375,307.35595703125,-211.35595703125
-224.6650390625,236.6650390625,301.94580078125,-217.94580078125
-210.54931640625,250.54931640625,304.58251953125,-216.58251953125
-228.41943359375,232.41943359375,303.15185546875,-219.15185546875
-226.31005859375,234.31005859375,305.55712890625,-217.55712890625
-228.287109375,232.287109375,309.7333984375,-213.7333984375
-216.40869140625,244.40869140625,295.646484375,-227.646484375
-212.67578125,248.67578125,307.2783203125,-215.2783203125
-211.0244140625,251.0244140625,308.6298828125,-212.6298828125
-227.3779296875,235.3779296875,297.72998046875,-221.72998046875
-229.70947265625,233.70947265625,294.646484375,-222.646484375
-226.07177734375,238.07177734375,293.46923828125,-221.46923828125
-222.544921875,242.544921875,288.279296875,-224.279296875
-227.13916015625,239.13916015625,295.12890625,-215.12890625
-231.7333984375,235.7333984375,298.05908203125,-210.05908203125
-218.11572265625,250.11572265625,299.1416015625,-207.1416015625
-224.11669921875,244.11669921875,294.4970703125,-210.4970703125
-223.72900390625,243.72900390625,294.263671875,-210.263671875
-225.1357421875,241.1357421875,292.51611328125,-212.51611328125
-222.60595703125,242.60595703125,285.1982421875,-221.1982421875
-220.3427734375,244.3427734375,296.12890625,-212.12890625
-220.38427734375,244.38427734375,287.06640625,-223.06640625
-212.59521484375,252.59521484375,297.81689453125,-213.81689453125
-228.75732421875,236.75732421875,302.3173828125,-210.3173828125
-222.68798828125,242.68798828125,304.65478515625,-208.65478515625
-222.35302734375,242.35302734375,302.99560546875,-210.99560546875
-215.89697265625,247.89697265625,289.48486328125,-225.48486328125
-225.576171875,237.576171875,294.15283203125,-222.15283203125
-211.61865234375,251.61865234375,298.88330078125,-218.88330078125
-224.0908203125,240.0908203125,297.4560546875,-221.4560546875
-214.8388671875,250.8388671875,301.65234375,-217.65234375
-219.546875,247.546875,299.37109375,-219.37109375
-223.87939453125,243.87939453125,294.68115234375,-222.68115234375
-213.65966796875,253.65966796875,293.8115234375,-221.8115234375
-220.9794921875,244.9794921875,299.05419921875,-215.05419921875
-226.1728515625,238.1728515625,288.63671875,-224.63671875
-221.64892578125,241.64892578125,306.623046875,-206.623046875
-217.67333984375,245.67333984375,286.89111328125,-226.89111328125
-226.23779296875,238.23779296875,293.20263671875,-221.20263671875
-225.04931640625,241.04931640625,291.3115234375,-223.3115234375
-213.66357421875,253.66357421875,289.07373046875,-225.07373046875
-231.67822265625,235.67822265625,286.49755859375,-226.49755859375
-230.90625,234.90625,295.73583984375,-215.73583984375
-219.45751953125,243.45751953125,299.01806640625,-211.01806640625
-219.69580078125,239.69580078125,302.56494140625,-206.56494140625
-222.1103515625,234.1103515625,284.5146484375,-224.5146484375
-219.14208984375,235.14208984375,294.90185546875,-214.90185546875
-219.03955078125,235.03955078125,297.66015625,-213.66015625
-213.78173828125,241.78173828125,300.640625,-212.640625
-225.08837890625,233.08837890625,295.62744140625,-219.62744140625
-214.53076171875,246.53076171875,290.36962890625,-226.36962890625
-213.68896484375,249.68896484375,306.65087890625,-210.65087890625
-228.31591796875,236.31591796875,290.359375,-226.359375
-230.4208984375,234.4208984375,297.5390625,-217.5390625
-218.23828125,246.23828125,306.39013671875,-206.39013671875
-224.0986328125,240.0986328125,293.20849609375,-217.20849609375
-220.27392578125,244.27392578125,294.27978515625,-214.27978515625
-230.86865234375,234.86865234375,291.78369140625,-215.78369140625
-223.7861328125,243.7861328125,285.73046875,-221.73046875
-218.7685546875,250.7685546875,293.9775390625,-213.9775390625
-233.48193359375,237.48193359375,296.29736328125,-212.29736328125
-219.626953125,251.626953125,296.4853515625,-212.4853515625
-227.04931640625,243.04931640625,284.44677734375,-224.44677734375
-217.8154296875,249.8154296875,286.25341796875,-222.25341796875
-228.21142578125,236.21142578125,304.10986328125,-204.10986328125
-216.67041015625,244.67041015625,300.2587890625,-208.2587890625
-221.63330078125,237.63330078125,288.85107421875,-220.85107421875
-227.38720703125,231.38720703125,295.85009765625,-215.85009765625
-223.94384765625,235.94384765625,301.02099609375,-213.02099609375
-223.0146484375,239.0146484375,298.02197265625,-218.02197265625
-218.130859375,246.130859375,302.5458984375,-214.5458984375
-222.849609375,242.849609375,294.46240234375,-222.46240234375
-218.9501953125,246.9501953125,289.86328125,-225.86328125
-224.50732421875,240.50732421875,289.001953125,-225.001953125
-229.8447265625,233.8447265625,304.1708984375,-208.1708984375
-229.384765625,233.384765625,301.57080078125,-209.57080078125
-213.49169921875,249.49169921875,297.244140625,-213.244140625
-218.32763671875,246.32763671875,293.0947265625,-217.0947265625
-215.7802734375,251.7802734375,290.9638671875,-218.9638671875
-231.482421875,239.482421875,288.73291015625,-220.73291015625
-228.9365234375,244.9365234375,302.3994140625,-206.3994140625
-223.69677734375,251.69677734375,286.09521484375,-222.09521484375
-217.54150390625,257.54150390625,302.01708984375,-206.01708984375
-226.552734375,246.552734375,304.31689453125,-204.31689453125
-225.09619140625,245.09619140625,296.9912109375,-212.9912109375
-229.70166015625,237.70166015625,303.84814453125,-207.84814453125
-228.89208984375,236.89208984375,306.572265625,-206.572265625
-221.0078125,245.0078125,304.87109375,-208.87109375
-226.083984375,242.083984375,304.63134765625,-208.63134765625
-215.814453125,255.814453125,295.98486328125,-215.98486328125
-227.64208984375,247.64208984375,305.23779296875,-205.23779296875
-234.9501953125,242.9501953125,300.68994140625,-208.68994140625
-225.306640625,253.306640625,290.46337890625,-218.46337890625
-234.64794921875,242.64794921875,298.44482421875,-210.44482421875
-225.30908203125,249.30908203125,284.39208984375,-224.39208984375
-215.87890625,255.87890625,304.10693359375,-204.10693359375
-214.93115234375,254.93115234375,283.58251953125,-223.58251953125
-216.78564453125,252.78564453125,285.01318359375,-221.01318359375
-227.40625,243.40625,294.66650390625,-210.66650390625
-226.46923828125,246.46923828125,294.7021484375,-210.7021484375
-229.5361328125,245.5361328125,285.05712890625,-221.05712890625
-236.24560546875,240.24560546875,291.48974609375,-215.48974609375
-218.43798828125,258.43798828125,291.7275390625,-215.7275390625
-224.17724609375,252.17724609375,285.63427734375,-221.63427734375
-221.6865234375,253.6865234375,295.279296875,-211.279296875
-219.2275390625,255.2275390625,302.88916015625,-202.88916015625
-218.97607421875,254.97607421875,294.720703125,-210.720703125
-234.9404296875,238.9404296875,292.9453125,-212.9453125
-226.97607421875,246.97607421875,299.59423828125,-207.59423828125
-228.8818359375,244.8818359375,290.58251953125,-218.58251953125
-224.5341796875,248.5341796875,293.7607421875,-217.7607421875
-225.9970703125,245.9970703125,288.95947265625,-224.95947265625
-225.5078125,245.5078125,299.998046875,-215.998046875
-221.35400390625,249.35400390625,306.6982421875,-210.6982421875
-227.7138671875,243.7138671875,296.94189453125,-220.94189453125
-216.55224609375,256.55224609375,292.72802734375,-224.72802734375
-225.62939453125,249.62939453125,294.20458984375,-222.20458984375
-218.61474609375,258.61474609375,291.61572265625,-223.61572265625
-219.25,259.25,303.19873046875,-211.19873046875
-235.46826171875,243.46826171875,295.0771484375,-219.0771484375
-219.41357421875,259.41357421875,303.21630859375,-211.21630859375
-223.3369140625,255.3369140625,295.47265625,-219.47265625
-237.4326171875,241.4326171875,301.68701171875,-213.68701171875
-227.7294921875,251.7294921875,299.7705078125,-215.7705078125
-226.10400390625,254.10400390625,303.73046875,-211.73046875
-224.3974609375,256.3974609375,295.65673828125,-219.65673828125
-226.5419921875,254.5419921875,299.681640625,-215.681640625
-220.587890625,260.587890625,299.9287109375,-215.9287109375
-236.642578125,244.642578125,292.46484375,-224.46484375
-224.7626953125,256.7626953125,297.2734375,-221.2734375
-226.890625,254.890625,304.25732421875,-216.25732421875
-224.875,256.875,311.2744140625,-211.2744140625
-234.56298828125,246.56298828125,306.19775390625,-218.19775390625
-225.89208984375,253.89208984375,304.95751953125,-220.95751953125
-226.94189453125,250.94189453125,305.53857421875,-221.53857421875
-221.900390625,253.900390625,301.9453125,-225.9453125
-232.99609375,240.99609375,308.150390625,-220.150390625
-224.4287109375,248.4287109375,294.07666015625,-234.07666015625
-218.32470703125,254.32470703125,299.61962890625,-227.61962890625
-222.70654296875,250.70654296875,308.70458984375,-216.70458984375
-235.47705078125,239.47705078125,291.33984375,-231.33984375
-232.4326171875,244.4326171875,297.65771484375,-221.65771484375
-235.3076171875,243.3076171875,305.8994140625,-209.8994140625
-233.8662109375,245.8662109375,292.3544921875,-220.3544921875
-230.00537109375,250.00537109375,305.24951171875,-205.24951171875
-237.81787109375,241.81787109375,296.66552734375,-212.66552734375
-237.56103515625,241.56103515625,296.5068359375,-212.5068359375
-231.53515625,247.53515625,286.56005859375,-222.56005859375
-223.92724609375,255.92724609375,288.6171875,-220.6171875
-234.7041015625,246.7041015625,284.587890625,-224.587890625
-237.615234375,245.615234375,302.5390625,-206.5390625
-236.30810546875,248.30810546875,302.61962890625,-206.61962890625
-234.48876953125,250.48876953125,290.92724609375,-218.92724609375
-236.05224609375,248.05224609375,295.4052734375,-215.4052734375
-231.11572265625,251.11572265625,295.84033203125,-215.84033203125
-231.9521484375,247.9521484375,301.978515625,-209.978515625
-230.8857421875,246.8857421875,305.6728515625,-205.6728515625
-236.1875,240.1875,294.97265625,-214.97265625
-227.98046875,247.98046875,302.1123046875,-206.1123046875
-218.1875,258.1875,303.42578125,-203.42578125
-220.54833984375,256.54833984375,295.22607421875,-211.22607421875
-218.73046875,258.73046875,303.68798828125,-203.68798828125
-228.474609375,248.474609375,288.71240234375,-220.71240234375
-223.6982421875,251.6982421875,295.84765625,-215.84765625
-220.47314453125,252.47314453125,288.3310546875,-224.3310546875
-220.912109375,248.912109375,305.28271484375,-205.28271484375
-215.025390625,251.025390625,293.9755859375,-209.9755859375
-212.64208984375,248.64208984375,276.04052734375,-216.04052734375
-223.45654296875,231.45654296875,277.5166015625,-197.5166015625
-205.16162109375,241.16162109375,274.71875,-178.71875
-211.58740234375,223.58740234375,254.02490234375,-174.02490234375
-206.75146484375,214.75146484375,247.68896484375,-151.68896484375
-182.81640625,222.81640625,213.787109375,-153.787109375
-180.015625,208.015625,212.33251953125,-120.33251953125
-180.6025390625,188.6025390625,193.45556640625,-101.45556640625
-170.84423828125,178.84423828125,157.552734375,-97.552734375
-153.029296875,177.029296875,143.30712890625,-71.30712890625
-135.490234375,175.490234375,121.6064453125,-53.6064453125
-128.65380859375,164.65380859375,119.41015625,-19.41015625
-123.08984375,155.08984375,101.59521484375,-5.59521484375
-119.48486328125,147.48486328125,82.81494140625,1.18505859375
-112.4580078125,148.4580078125,67.37646484375,4.62353515625
-124.29248046875,136.29248046875,63.1845703125,12.8154296875
-114.69580078125,150.69580078125,63.779296875,20.220703125
-124.78173828125,148.78173828125,60.4453125,19.5546875
-139.30078125,143.30078125,56.3427734375,15.6572265625
-125.0478515625,165.0478515625,66.66162109375,25.33837890625
-135.27587890625,159.27587890625,62.75927734375,21.24072265625
-129.91796875,165.91796875,58.2880859375,17.7119140625
-129.5205078125,165.5205078125,51.22900390625,12.77099609375
-128.92529296875,164.92529296875,57.82568359375,22.17431640625
-128.87109375,164.87109375,58.41796875,25.58203125
-135.69384765625,159.69384765625,53.26123046875,22.73876953125
-133.24462890625,165.24462890625,62.43408203125,33.56591796875
-147.01220703125,155.01220703125,55.8720703125,28.1279296875
-132.39501953125,172.39501953125,45.4873046875,18.5126953125
-140.99658203125,164.99658203125,47.2900390625,20.7099609375
-148.83935546875,156.83935546875,43.41552734375,16.58447265625
-150.35986328125,154.35986328125,48.029296875,19.970703125
-134.171875,170.171875,51.185546875,20.814453125
-142.701171875,162.701171875,46.72314453125,13.27685546875
-135.92626953125,171.92626953125,58.28125,21.71875
-143.37255859375,167.37255859375,61.4169921875,22.5830078125
-146.380859375,166.380859375,67.77880859375,28.22119140625
-144.4560546875,168.4560546875,63.2490234375,24.7509765625
-135.52197265625,175.52197265625,59.98095703125,24.01904296875
-145.9482421875,161.9482421875,46.3515625,13.6484375
-142.36328125,162.36328125,48.8046875,19.1953125
-131.365234375,171.365234375,47.68310546875,20.31689453125
-145.2626953125,157.2626953125,61.11181640625,34.88818359375
-147.9521484375,155.9521484375,58.97021484375,33.02978515625
-146.99072265625,158.99072265625,44.9794921875,19.0205078125
-139.80712890625,167.80712890625,46.83740234375,21.16259765625
-139.9638671875,167.9638671875,60.35107421875,35.64892578125
-137.33935546875,169.33935546875,55.51025390625,32.48974609375
-144.181640625,160.181640625,56.46875,35.53125
-131.021484375,171.021484375,45.4619140625,26.5380859375
-146.4453125,154.4453125,56.69287109375,39.30712890625
-140.830078125,160.830078125,48.26171875,31.73828125
-142.13720703125,162.13720703125,44.14404296875,27.85595703125
-137.896484375,169.896484375,54.251953125,37.748046875
-145.38623046875,165.38623046875,50.49853515625,33.50146484375
-143.93310546875,167.93310546875,46.8583984375,29.1416015625
-135.19287109375,175.19287109375,41.37841796875,22.62158203125
-149.298828125,157.298828125,58.15234375,37.84765625
-138.8212890625,162.8212890625,51.2578125,28.7421875
-128.53125,168.53125,46.6884765625,21.3115234375
-143.06591796875,151.06591796875,52.32177734375,23.67822265625
-142.65771484375,150.65771484375,47.9404296875,16.0595703125
-139.0654296875,155.0654296875,53.28466796875,18.71533203125
-133.732421875,161.732421875,68.1064453125,31.8935546875
-136.06201171875,160.06201171875,56.2236328125,19.7763671875
-135.6689453125,159.6689453125,61.541015625,26.458984375
-130.51708984375,162.51708984375,46.07568359375,13.92431640625
-134.88916015625,154.88916015625,51.958984375,24.041015625
-133.24462890625,153.24462890625,59.4248046875,36.5751953125
-122.03173828125,162.03173828125,40.77490234375,23.22509765625
-129.52490234375,153.52490234375,36.30908203125,23.69091796875
-131.736328125,151.736328125,46.25,37.75
-140.42919921875,144.42919921875,32.69970703125,27.30029296875
-139.23095703125,147.23095703125,31.64404296875,28.35595703125
-127.8056640625,159.8056640625,33.01171875,30.98828125
-134.0146484375,154.0146484375,44.74267578125,43.25732421875
-133.96240234375,153.96240234375,46.8291015625,45.1708984375
-141.91162109375,145.91162109375,45.283203125,42.716796875
-132.09521484375,156.09521484375,52.07373046875,47.92626953125
-128.568359375,160.568359375,45.06640625,38.93359375
-141.1689453125,149.1689453125,34.04150390625,25.95849609375
-125.6142578125,165.6142578125,46.7607421875,37.2392578125
-131.65771484375,159.65771484375,51.064453125,40.935546875
-129.2255859375,161.2255859375,48.92724609375,39.07275390625
-128.47216796875,160.47216796875,40.45703125,31.54296875
-139.73583984375,147.73583984375,53.8369140625,46.1630859375
-137.39501953125,149.39501953125,45.23974609375,38.76025390625
-123.68505859375,163.68505859375,52.7548828125,47.2451171875
-128.55517578125,160.55517578125,52.36328125,47.63671875
-133.65576171875,157.65576171875,43.95947265625,40.04052734375
-126.47412109375,166.47412109375,33.44091796875,30.55908203125
-144.56787109375,148.56787109375,34.791015625,33.208984375
-129.78662109375,161.78662109375,36.1220703125,35.8779296875
-134.369140625,154.369140625,39.63623046875,40.36376953125
-130.857421875,154.857421875,31.517578125,32.482421875
-125.84423828125,157.84423828125,49.7998046875,50.2001953125
-131.68603515625,151.68603515625,50.31689453125,49.68310546875
-132.32421875,152.32421875,50.7568359375,49.2431640625
-137.3203125,149.3203125,42.818359375,41.181640625
-124.07421875,164.07421875,44.3701171875,43.6298828125
-126.11572265625,162.11572265625,45.52978515625,46.47021484375
-141.32470703125,145.32470703125,40.6171875,43.3828125
-132.0,152.0,28.01416015625,31.98583984375
-120.72265625,160.72265625,41.984375,46.015625
-134.072265625,146.072265625,28.55078125,31.44921875
-138.34130859375,142.34130859375,43.47119140625,44.52880859375
-123.3857421875,159.3857421875,40.3564453125,39.6435546875
-136.70166015625,148.70166015625,34.84912109375,33.15087890625
-135.6787109375,151.6787109375,36.79638671875,35.20361328125
-135.8984375,151.8984375,44.30029296875,43.69970703125
-133.3330078125,153.3330078125,33.6416015625,34.3583984375
-136.35009765625,148.35009765625,43.1162109375,44.8837890625
-137.5146484375,145.5146484375,48.880859375,51.119140625
-127.302734375,155.302734375,42.8837890625,45.1162109375
-127.85595703125,155.85595703125,28.92138671875,31.07861328125
-126.92138671875,158.92138671875,32.77392578125,35.22607421875
-127.99267578125,159.99267578125,42.3349609375,45.6650390625
-142.57421875,146.57421875,37.65625,42.34375
-124.42626953125,164.42626953125,30.8916015625,37.1083984375
-131.67626953125,155.67626953125,44.2001953125,51.7998046875
-128.7451171875,156.7451171875,43.68017578125,52.31982421875
-130.12060546875,154.12060546875,31.35546875,40.64453125
-128.0986328125,156.0986328125,41.203125,50.796875
-130.6298828125,154.6298828125,29.18505859375,38.81494140625
-131.37060546875,155.37060546875,37.26611328125,46.73388671875
-129.88232421875,157.88232421875,37.41943359375,46.58056640625
-137.8681640625,149.8681640625,33.62939453125,42.37060546875
-139.3134765625,147.3134765625,37.88720703125,46.11279296875
-140.48583984375,144.48583984375,44.19287109375,51.80712890625
-139.80859375,143.80859375,38.533203125,45.466796875
-139.67333984375,143.67333984375,42.86376953125,49.13623046875
-122.2607421875,162.2607421875,41.1103515625,46.8896484375
-135.46533203125,151.46533203125,31.18408203125,36.81591796875
-142.94140625,146.94140625,31.02099609375,36.97900390625
-128.23486328125,164.23486328125,26.615234375,33.384765625
-138.953125,154.953125,46.03173828125,53.96826171875
-144.8955078125,148.8955078125,35.3984375,44.6015625
-144.12646484375,148.12646484375,34.86669921875,45.13330078125
-130.94921875,158.94921875,38.56298828125,49.43701171875
-129.791015625,157.791015625,32.5263671875,43.4736328125
-123.02197265625,163.02197265625,24.69189453125,35.30810546875
-136.8125,148.8125,44.9208984375,55.0791015625
-141.0791015625,145.0791015625,45.078125,54.921875
-127.54248046875,159.54248046875,31.1142578125,40.8857421875
-133.85986328125,153.85986328125,43.0927734375,52.9072265625
-139.76513671875,147.76513671875,27.1474609375,36.8525390625
-129.18603515625,157.18603515625,41.40185546875,50.59814453125
-124.2744140625,160.2744140625,25.8984375,34.1015625
-125.3623046875,157.3623046875,34.5732421875,41.4267578125
-128.82373046875,152.82373046875,45.30078125,50.69921875
-132.9228515625,148.9228515625,33.955078125,38.044921875
-135.68115234375,147.68115234375,42.45947265625,45.54052734375
-130.8623046875,154.8623046875,40.8076171875,43.1923828125
-140.0703125,148.0703125,47.041015625,48.958984375
-126.93896484375,162.93896484375,47.22509765625,48.77490234375
-129.29833984375,161.29833984375,47.4248046875,48.5751953125
-141.2412109375,149.2412109375,43.671875,44.328125
-141.0439453125,149.0439453125,41.939453125,42.060546875
-138.9921875,150.9921875,46.13525390625,45.86474609375
-131.21484375,159.21484375,32.1484375,31.8515625
-131.6259765625,159.6259765625,47.91650390625,48.08349609375
-132.0,160.0,33.47216796875,34.52783203125
-130.12255859375,162.12255859375,28.92626953125,31.07373046875
-141.90673828125,149.90673828125,34.41650390625,37.58349609375
-137.416015625,153.416015625,38.04345703125,41.95654296875
-140.81298828125,148.81298828125,37.8330078125,42.1669921875
-136.2685546875,152.2685546875,47.75,52.25
-133.88134765625,153.88134765625,39.73681640625,44.26318359375
-137.65283203125,149.65283203125,33.74560546875,38.25439453125
-139.525390625,147.525390625,39.75439453125,44.24560546875
-123.4716796875,163.4716796875,37.76025390625,42.23974609375
-129.53515625,157.53515625,45.76953125,50.23046875
-135.79833984375,151.79833984375,45.7998046875,50.2001953125
-132.275390625,156.275390625,35.88330078125,40.11669921875
-138.841796875,150.841796875,32.05322265625,35.94677734375
-135.24072265625,155.24072265625,30.33642578125,33.66357421875
-139.19091796875,151.19091796875,38.72216796875,41.27783203125
-124.5380859375,164.5380859375,43.1533203125,44.8466796875
-139.37353515625,147.37353515625,49.51171875,50.48828125
-134.0458984375,150.0458984375,41.6318359375,42.3681640625
-133.02685546875,149.02685546875,39.34228515625,40.65771484375
-134.69140625,146.69140625,42.54931640625,45.45068359375
-127.123046875,155.123046875,43.32421875,48.67578125
-134.0810546875,150.0810546875,43.92236328125,52.07763671875
-125.12939453125,161.12939453125,40.7099609375,51.2900390625
-133.87255859375,153.87255859375,28.01318359375,39.98681640625
-138.13232421875,150.13232421875,31.9794921875,44.0205078125
-135.9931640625,151.9931640625,34.53662109375,45.46337890625
-125.69873046875,161.69873046875,29.453125,38.546875
-133.4814453125,153.4814453125,28.4599609375,35.5400390625
-141.44091796875,145.44091796875,47.357421875,52.642578125
-125.52880859375,161.52880859375,48.05517578125,51.94482421875
-137.6259765625,149.6259765625,42.548828125,45.451171875
-137.64990234375,149.64990234375,32.8701171875,35.1298828125
-137.60302734375,149.60302734375,43.056640625,44.943359375
-123.5400390625,163.5400390625,35.1494140625,36.8505859375
-127.51220703125,159.51220703125,29.1904296875,30.8095703125
-127.52783203125,159.52783203125,47.22119140625,48.77880859375
-129.5830078125,157.5830078125,45.26611328125,46.73388671875
-141.69677734375,145.69677734375,35.318359375,36.681640625
-131.91552734375,155.91552734375,31.3564453125,32.6435546875
-132.28564453125,156.28564453125,47.35791015625,48.64208984375
-132.79345703125,156.79345703125,43.31494140625,44.68505859375
-133.333984375,157.333984375,47.22021484375,48.77978515625
-125.72412109375,165.72412109375,45.06494140625,46.93505859375
-125.765625,165.765625,32.8505859375,35.1494140625
-131.3603515625,159.3603515625,38.6279296875,41.3720703125
-130.61181640625,158.61181640625,32.4970703125,35.5029296875
-133.837890625,153.837890625,48.56640625,51.43359375
-135.45751953125,151.45751953125,42.86767578125,45.13232421875
-137.7744140625,149.7744140625,33.31103515625,34.68896484375
-124.77880859375,164.77880859375,33.6923828125,34.3076171875
-136.09423828125,156.09423828125,39.7734375,40.2265625
-143.12841796875,151.12841796875,45.3984375,46.6015625
-143.37646484375,151.37646484375,42.58642578125,45.41357421875
-136.716796875,156.716796875,45.53515625,50.46484375
-139.5302734375,151.5302734375,28.54638671875,35.45361328125
-142.5341796875,146.5341796875,45.90087890625,54.09912109375
-132.4091796875,156.4091796875,33.76025390625,42.23974609375
-137.4033203125,153.4033203125,38.12158203125,45.87841796875
-135.166015625,159.166015625,32.83935546875,39.16064453125
-130.921875,166.921875,33.68505859375,38.31494140625
-131.8828125,167.8828125,44.42822265625,47.57177734375
-147.66748046875,151.66748046875,48.8955078125,51.1044921875
-134.47607421875,162.47607421875,46.99267578125,49.00732421875
-134.93994140625,158.93994140625,40.716796875,43.283203125
-129.748046875,161.748046875,40.1611328125,43.8388671875
-139.29736328125,151.29736328125,31.498046875,36.501953125
-129.5615234375,161.5615234375,32.93701171875,39.06298828125
-144.1884765625,148.1884765625,36.6669921875,43.3330078125
-126.744140625,166.744140625,38.802734375,45.197265625
-128.93017578125,164.93017578125,41.35107421875,46.64892578125
-134.681640625,158.681640625,40.2099609375,43.7900390625
-132.15625,160.15625,31.18701171875,32.81298828125
-129.6435546875,161.6435546875,36.04736328125,35.95263671875
-137.46533203125,153.46533203125,46.580078125,45.419921875
-129.8837890625,161.8837890625,44.669921875,43.330078125
-133.01904296875,161.01904296875,38.337890625,37.662109375
-128.79443359375,168.79443359375,43.7412109375,44.2587890625
-144.927734375,156.927734375,43.11279296875,44.88720703125
-137.0048828125,169.0048828125,30.67333984375,33.32666015625
-146.60693359375,162.60693359375,44.55224609375,47.44775390625
-143.44140625,167.44140625,36.75732421875,39.24267578125
-149.4404296875,161.4404296875,43.18798828125,44.81201171875
-140.7919921875,168.7919921875,47.6962890625,48.3037109375
-135.8876953125,171.8876953125,46.13427734375,45.86572265625
-147.18798828125,159.18798828125,50.404296875,49.595703125
-137.03515625,169.03515625,50.47509765625,49.52490234375
-133.505859375,173.505859375,30.37841796875,29.62158203125
-138.40283203125,170.40283203125,42.18212890625,41.81787109375
-147.353515625,163.353515625,39.95654296875,40.04345703125
-153.998046875,157.998046875,47.74365234375,48.25634765625
-154.134765625,158.134765625,33.544921875,34.455078125
-137.76416015625,173.76416015625,41.33740234375,42.66259765625
-145.0029296875,165.0029296875,49.1162109375,50.8837890625
-133.93701171875,173.93701171875,42.9150390625,45.0849609375
-134.5322265625,170.5322265625,34.80810546875,37.19189453125
-148.62744140625,152.62744140625,34.88427734375,37.11572265625
-133.92626953125,161.92626953125,45.23486328125,46.76513671875
-123.9658203125,163.9658203125,29.9541015625,30.0458984375
-126.1474609375,150.1474609375,39.166015625,36.833984375
-115.876953125,143.876953125,47.03564453125,40.96435546875
-104.734375,132.734375,35.73046875,24.26953125
-96.53076171875,112.53076171875,39.328125,20.671875
-77.1865234375,97.1865234375,45.68994140625,18.31005859375
-58.50244140625,74.50244140625,50.400390625,13.599609375
-31.98779296875,51.98779296875,68.82763671875,23.17236328125
-8.93994140625,16.93994140625,60.2998046875,7.7001953125
39.0947265625,-3.0947265625,64.3408203125,7.6591796875
61.6796875,-57.6796875,70.86279296875,13.13720703125
113.046875,-89.046875,76.255859375,19.744140625
148.2431640625,-136.2431640625,67.27783203125,12.72216796875
195.9150390625,-163.9150390625,56.76904296875,3.23095703125
223.34423828125,-199.34423828125,67.28173828125,12.71826171875
247.22998046875,-223.22998046875,76.81787109375,19.18212890625
263.87255859375,-239.87255859375,60.83642578125,-0.83642578125
266.74658203125,-258.74658203125,78.546875,13.453125
287.74853515625,-251.74853515625,63.33349609375,-3.33349609375
280.48095703125,-268.48095703125,81.0634765625,14.9365234375
295.83056640625,-259.83056640625,78.109375,13.890625
299.912109375,-259.912109375,71.08349609375,8.91650390625
282.3056640625,-278.3056640625,78.4560546875,17.5439453125
298.42626953125,-258.42626953125,78.2919921875,17.7080078125
275.8701171875,-271.8701171875,74.24755859375,13.75244140625
268.62451171875,-264.62451171875,73.81201171875,14.18798828125
271.091796875,-243.091796875,68.61669921875,11.38330078125
251.9384765625,-239.9384765625,72.6220703125,19.3779296875
237.8310546875,-229.8310546875,58.12451171875,9.87548828125
223.21435546875,-219.21435546875,61.59228515625,18.40771484375
228.22119140625,-188.22119140625,61.44580078125,22.55419921875
208.77294921875,-180.77294921875,61.89013671875,26.10986328125
196.7587890625,-164.7587890625,56.859375,23.140625
186.2060546875,-146.2060546875,46.09326171875,13.90673828125
169.326171875,-133.326171875,45.314453125,14.685546875
154.4697265625,-118.4697265625,50.400390625,21.599609375
142.015625,-102.015625,59.4658203125,32.5341796875
128.23193359375,-88.23193359375,46.77392578125,21.22607421875
97.18408203125,-93.18408203125,46.53955078125,21.46044921875
92.73779296875,-72.73779296875,62.75244140625,37.24755859375
82.6728515625,-58.6728515625,57.1513671875,30.8486328125
64.86328125,-52.86328125,57.3876953125,30.6123046875
53.384765625,-41.384765625,59.25732421875,32.74267578125
38.50732421875,-34.50732421875,44.83642578125,19.16357421875
34.53515625,-18.53515625,50.40380859375,25.59619140625
19.62158203125,-15.62158203125,56.22412109375,31.77587890625
29.63916015625,10.36083984375,48.3544921875,23.6455078125
6.20703125,1.79296875,54.58935546875,29.41064453125
2.85400390625,13.14599609375,58.587890625,33.412109375
1.2392578125,26.7607421875,44.0791015625,19.9208984375
-12.69677734375,28.69677734375,51.0283203125,28.9716796875
-18.70458984375,38.70458984375,51.66796875,32.33203125
-22.3173828125,50.3173828125,50.3720703125,33.6279296875
-39.02734375,47.02734375,41.4775390625,26.5224609375
-42.48486328125,54.48486328125,53.12890625,38.87109375
-32.6533203125,72.6533203125,53.25390625,38.74609375
-53.8486328125,57.8486328125,49.61669921875,34.38330078125
-48.64013671875,68.64013671875,55.93701171875,40.06298828125
-57.6220703125,65.6220703125,49.98583984375,34.01416015625
-45.16552734375,85.16552734375,37.6533203125,22.3466796875
-53.2822265625,85.2822265625,52.96533203125,39.03466796875
-67.6650390625,79.6650390625,46.0693359375,33.9306640625
-69.880859375,85.880859375,53.18017578125,42.81982421875
-65.60107421875,97.60107421875,36.5048828125,27.4951171875
-68.74072265625,100.74072265625,50.1708984375,41.8291015625
-79.44580078125,95.44580078125,50.18701171875,41.81298828125
-73.94677734375,105.94677734375,34.4599609375,25.5400390625
-80.4111328125,104.4111328125,36.84521484375,27.15478515625
-74.8623046875,114.8623046875,47.19970703125,36.80029296875
-83.236328125,111.236328125,45.42041015625,34.57958984375
-87.47998046875,111.47998046875,45.45361328125,34.54638671875
-95.64013671875,107.64013671875,51.2822265625,40.7177734375
-95.83203125,111.83203125,44.927734375,35.072265625
-92.123046875,120.123046875,44.45751953125,35.54248046875
-96.41552734375,120.41552734375,39.9794921875,32.0205078125
-100.453125,120.453125,37.60986328125,30.39013671875
-105.97216796875,117.97216796875,45.41552734375,38.58447265625
-104.9072265625,120.9072265625,43.375,36.625
-103.5,123.5,51.37646484375,44.62353515625
-96.20361328125,132.20361328125,35.27197265625,28.72802734375
-97.42919921875,133.42919921875,32.96044921875,27.03955078125
-113.2685546875,121.2685546875,34.45458984375,29.54541015625
-109.39453125,129.39453125,49.8994140625,46.1005859375
-101.2275390625,141.2275390625,45.517578125,42.482421875
-108.27197265625,136.27197265625,35.51220703125,32.48779296875
-102.42626953125,142.42626953125,31.9638671875,28.0361328125
-102.06640625,142.06640625,50.75830078125,45.24169921875
-109.8525390625,133.8525390625,41.5947265625,34.4052734375
-106.37548828125,138.37548828125,42.083984375,33.916015625
-109.83544921875,137.83544921875,53.92626953125,46.07373046875
-105.95361328125,145.95361328125,49.0712890625,42.9287109375
-112.15966796875,144.15966796875,37.7744140625,34.2255859375
-127.9091796875,131.9091796875,38.50048828125,37.49951171875
-118.95849609375,142.95849609375,31.71044921875,32.28955078125
-121.43017578125,141.43017578125,35.65966796875,36.34033203125
-113.69189453125,149.69189453125,50.30322265625,49.69677734375
-112.12646484375,152.12646484375,43.3642578125,40.6357421875
-116.9482421875,148.9482421875,40.4873046875,35.5126953125
-120.12939453125,148.12939453125,39.39697265625,32.60302734375
-125.451171875,145.451171875,35.98291015625,28.01708984375
-126.62353515625,146.62353515625,34.28955078125,25.71044921875
-125.41796875,149.41796875,50.43798828125,41.56201171875
-123.76611328125,151.76611328125,48.533203125,39.466796875
-131.80224609375,143.80224609375,38.62744140625,29.37255859375
-125.8291015625,149.8291015625,50.7451171875,41.2548828125
-134.21875,142.21875,52.92724609375,43.07275390625
-127.25341796875,151.25341796875,51.24853515625,40.75146484375
-121.00048828125,161.00048828125,51.77294921875,40.22705078125
-141.24951171875,145.24951171875,54.47900390625,41.52099609375
-125.591796875,165.591796875,39.2177734375,24.7822265625
-141.59375,153.59375,51.7255859375,36.2744140625
-143.005859375,155.005859375,51.73388671875,36.26611328125
-129.86279296875,169.86279296875,55.1171875,40.8828125
-144.42822265625,156.42822265625,41.99169921875,30.00830078125
-133.0078125,169.0078125,40.69580078125,31.30419921875
-135.7578125,167.7578125,51.64013671875,44.35986328125
-142.60986328125,162.60986328125,35.09765625,28.90234375
-137.36181640625,169.36181640625,35.0712890625,28.9287109375
-143.84619140625,163.84619140625,51.2958984375,44.7041015625
-152.06396484375,156.06396484375,45.40087890625,38.59912109375
-152.1826171875,156.1826171875,35.1279296875,28.8720703125
-144.4091796875,164.4091796875,36.470703125,31.529296875
-146.8427734375,162.8427734375,43.6552734375,40.3447265625
-143.4091796875,167.4091796875,32.97900390625,31.02099609375
-143.923828125,167.923828125,32.6298828125,31.3701171875
-144.23046875,168.23046875,38.6005859375,37.3994140625
-146.31396484375,166.31396484375,38.73974609375,37.26025390625
-150.2861328125,162.2861328125,42.873046875,41.126953125
-150.2900390625,162.2900390625,34.91650390625,33.08349609375
-146.40283203125,166.40283203125,42.92333984375,41.07666015625
-150.62548828125,162.62548828125,51.033203125,48.966796875
-150.94091796875,162.94091796875,49.3720703125,46.6279296875
-139.37255859375,175.37255859375,45.9560546875,42.0439453125
-151.98193359375,163.98193359375,44.6474609375,39.3525390625
-154.8115234375,162.8115234375,37.1875,30.8125
-139.79541015625,179.79541015625,33.28515625,26.71484375
-156.72998046875,164.72998046875,40.7509765625,35.2490234375
-153.32470703125,169.32470703125,51.60009765625,48.39990234375
-147.330078125,175.330078125,44.1025390625,43.8974609375
-158.66162109375,162.66162109375,34.703125,37.296875
-151.462890625,167.462890625,29.87939453125,34.12060546875
-144.0751953125,172.0751953125,27.96728515625,32.03271484375
-136.91357421875,176.91357421875,43.025390625,44.974609375
-148.30078125,164.30078125,38.80908203125,37.19091796875
-148.3447265625,164.3447265625,44.84521484375,39.15478515625
-150.8984375,162.8984375,48.6005859375,39.3994140625
-149.6455078125,165.6455078125,55.66552734375,44.33447265625
-156.248046875,160.248046875,35.890625,24.109375
-142.509765625,174.509765625,47.42041015625,36.57958984375
-150.47705078125,166.47705078125,34.62255859375,25.37744140625
-138.41357421875,178.41357421875,41.93798828125,34.06201171875
-138.65185546875,178.65185546875,35.71630859375,28.28369140625
-153.3896484375,165.3896484375,36.103515625,27.896484375
-142.55810546875,178.55810546875,35.01953125,24.98046875
-145.8447265625,177.8447265625,36.228515625,23.771484375
-152.8515625,172.8515625,55.44677734375,40.55322265625
-153.2978515625,173.2978515625,54.43603515625,37.56396484375
-147.1650390625,179.1650390625,59.048828125,40.951171875
-154.71142578125,170.71142578125,47.23583984375,28.76416015625
-158.349609375,166.349609375,39.02099609375,20.97900390625
-160.45166015625,164.45166015625,56.48095703125,39.51904296875
-147.18115234375,179.18115234375,43.7177734375,28.2822265625
-160.42578125,168.42578125,42.8349609375,29.1650390625
-159.861328125,171.861328125,37.91748046875,26.08251953125
-157.0947265625,177.0947265625,39.03076171875,28.96923828125
-157.83447265625,177.83447265625,38.224609375,29.775390625
-147.99365234375,187.99365234375,39.54052734375,32.45947265625
-155.7177734375,179.7177734375,53.013671875,46.986328125
-161.3154296875,173.3154296875,34.666015625,29.333984375
-155.126953125,179.126953125,42.501953125,37.498046875
-151.38134765625,183.38134765625,44.5029296875,39.4970703125
-158.08642578125,178.08642578125,32.6240234375,27.3759765625
-167.0126953125,171.0126953125,44.81005859375,39.18994140625
-159.79248046875,179.79248046875,51.0341796875,44.9658203125
-154.1162109375,186.1162109375,35.32958984375,28.67041015625
-155.90380859375,183.90380859375,35.78857421875,28.21142578125
-167.36669921875,171.36669921875,34.50146484375,25.49853515625
-156.900390625,180.900390625,43.46875,32.53125
-164.87939453125,172.87939453125,46.5322265625,33.4677734375
-159.45751953125,179.45751953125,57.3994140625,42.6005859375
-158.4716796875,182.4716796875,55.76025390625,40.23974609375
-159.5263671875,183.5263671875,43.453125,28.546875
-162.21044921875,182.21044921875,38.5791015625,25.4208984375
-170.3388671875,174.3388671875,49.5068359375,38.4931640625
-158.048828125,186.048828125,40.73095703125,31.26904296875
-155.6904296875,187.6904296875,50.66455078125,41.33544921875
-151.6005859375,191.6005859375,49.45166015625,38.54833984375
-157.90771484375,185.90771484375,52.88916015625,39.11083984375
-160.4814453125,184.4814453125,48.51025390625,31.48974609375
-153.02978515625,193.02978515625,57.78955078125,38.21044921875
-163.28173828125,183.28173828125,46.35498046875,25.64501953125
-171.14990234375,175.14990234375,46.103515625,25.896484375
-160.78662109375,184.78662109375,53.17529296875,34.82470703125
-152.49609375,192.49609375,55.84033203125,40.15966796875
-164.54931640625,180.54931640625,50.39208984375,37.60791015625
-153.00732421875,193.00732421875,37.08447265625,26.91552734375
-165.669921875,181.669921875,36.11328125,27.88671875
-160.1865234375,188.1865234375,35.6025390625,28.3974609375
-160.25341796875,188.25341796875,39.56103515625,32.43896484375
-157.7978515625,189.7978515625,53.85791015625,46.14208984375
-171.0302734375,175.0302734375,44.2529296875,35.7470703125
-166.35986328125,178.35986328125,44.4912109375,35.5087890625
-160.1982421875,184.1982421875,54.42138671875,45.57861328125
-164.7646484375,180.7646484375,50.060546875,41.939453125
-161.96826171875,185.96826171875,37.55615234375,30.44384765625
-169.44873046875,181.44873046875,47.08154296875,40.91845703125
-156.74609375,196.74609375,34.73486328125,29.26513671875
-175.49658203125,179.49658203125,52.51953125,47.48046875
-173.57373046875,181.57373046875,46.39404296875,41.60595703125
-175.10693359375,179.10693359375,44.3505859375,39.6494140625
-168.41162109375,184.41162109375,48.4306640625,43.5693359375
-157.85986328125,193.85986328125,48.67626953125,43.32373046875
-167.7373046875,183.7373046875,45.05712890625,38.94287109375
-172.12060546875,180.12060546875,41.4521484375,34.5478515625
-160.8388671875,192.8388671875,51.70458984375,44.29541015625
-171.54541015625,183.54541015625,35.70556640625,28.29443359375
-165.8876953125,189.8876953125,45.4638671875,38.5361328125
-173.69873046875,181.69873046875,37.0966796875,30.9033203125
-161.08935546875,193.08935546875,48.75634765625,43.24365234375
-174.39599609375,178.39599609375,40.5439453125,35.4560546875
-171.99365234375,179.99365234375,34.4580078125,29.5419921875
-170.087890625,182.087890625,50.4150390625,45.5849609375
-158.6083984375,194.6083984375,40.3291015625,35.6708984375
-173.24755859375,181.24755859375,48.17529296875,43.82470703125
-163.64208984375,191.64208984375,52.02001953125,47.97998046875
-169.5615234375,185.5615234375,37.98876953125,34.01123046875
-173.025390625,181.025390625,48.1923828125,43.8076171875
-164.27490234375,188.27490234375,44.65380859375,39.34619140625
-165.64013671875,185.64013671875,51.28662109375,44.71337890625
-161.38818359375,189.38818359375,41.9345703125,34.0654296875
-163.6142578125,187.6142578125,44.45751953125,35.54248046875
-166.2138671875,186.2138671875,46.796875,37.203125
-164.921875,188.921875,49.0029296875,38.9970703125
-169.41943359375,185.41943359375,51.1982421875,40.8017578125
-163.466796875,191.466796875,51.5068359375,40.4931640625
-171.0263671875,183.0263671875,51.96435546875,40.03564453125
-168.30078125,184.30078125,52.47314453125,39.52685546875
-173.646484375,177.646484375,40.8359375,27.1640625
-169.4013671875,181.4013671875,44.86328125,31.13671875
-159.7109375,191.7109375,44.48876953125,31.51123046875
-168.458984375,184.458984375,49.80810546875,38.19189453125
-159.3408203125,195.3408203125,41.0078125,30.9921875
-166.0478515625,190.0478515625,50.24658203125,41.75341796875
-160.423828125,196.423828125,41.57470703125,34.42529296875
-164.5166015625,192.5166015625,44.9541015625,39.0458984375
-174.4892578125,182.4892578125,50.3466796875,45.6533203125
-176.48779296875,180.48779296875,39.80712890625,36.19287109375
-170.54248046875,186.54248046875,47.4765625,44.5234375
-160.5595703125,196.5595703125,51.51171875,48.48828125
-174.39794921875,182.39794921875,39.97119140625,36.02880859375
-171.98486328125,183.98486328125,52.76611328125,47.23388671875
-159.3876953125,195.3876953125,39.6796875,32.3203125
-160.7919921875,192.7919921875,44.44775390625,35.55224609375
-164.400390625,188.400390625,42.85009765625,33.14990234375
-170.3193359375,182.3193359375,34.76513671875,25.23486328125
-164.5087890625,188.5087890625,54.1943359375,45.8056640625
-156.82080078125,196.82080078125,43.25732421875,36.74267578125
-173.08154296875,181.08154296875,50.169921875,45.830078125
-161.18017578125,193.18017578125,35.22021484375,32.77978515625
-157.1220703125,197.1220703125,46.68701171875,45.31298828125
-167.0048828125,187.0048828125,38.74169921875,37.25830078125
-166.93359375,186.93359375,33.35986328125,30.64013671875
-156.9287109375,196.9287109375,46.32470703125,41.67529296875
-160.89794921875,192.89794921875,53.3330078125,46.6669921875
-158.7197265625,194.7197265625,54.1298828125,45.8701171875
-174.36328125,178.36328125,48.59765625,39.40234375
-171.95068359375,179.95068359375,52.7548828125,43.2451171875
-169.70947265625,181.70947265625,52.69384765625,43.30615234375
-171.84375,179.84375,52.5087890625,43.4912109375
-158.41845703125,194.41845703125,42.25927734375,33.74072265625
-159.3076171875,195.3076171875,39.970703125,32.029296875
-164.23291015625,192.23291015625,49.66064453125,42.33935546875
-158.87158203125,198.87158203125,39.3662109375,32.6337890625
-160.990234375,196.990234375,41.13525390625,34.86474609375
-166.5556640625,190.5556640625,51.0009765625,44.9990234375
-161.7529296875,193.7529296875,36.9658203125,31.0341796875
-174.9189453125,178.9189453125,41.00537109375,34.99462890625
-164.40576171875,188.40576171875,35.09716796875,28.90283203125
-172.43896484375,180.43896484375,45.23486328125,38.76513671875
-157.03759765625,197.03759765625,53.4150390625,46.5849609375
-158.0126953125,198.0126953125,53.61181640625,46.38818359375
-161.0283203125,197.0283203125,47.794921875,40.205078125
-167.71875,191.71875,33.97021484375,26.02978515625
-161.82275390625,197.82275390625,48.19921875,39.80078125
-167.3046875,191.3046875,46.55078125,37.44921875
-162.38525390625,194.38525390625,39.03076171875,28.96923828125
-175.47216796875,179.47216796875,43.54833984375,32.45166015625
-170.99951171875,182.99951171875,53.9443359375,42.0556640625
-171.2548828125,183.2548828125,36.07763671875,23.92236328125
-164.25390625,192.25390625,41.91357421875,30.08642578125
-161.71044921875,197.71044921875,49.560546875,38.439453125
-165.1396484375,197.1396484375,43.234375,32.765625
-168.0478515625,196.0478515625,35.15478515625,24.84521484375
-162.130859375,202.130859375,39.4453125,28.5546875
-177.3857421875,185.3857421875,36.0810546875,23.9189453125
-168.10107421875,192.10107421875,36.91015625,23.08984375
-170.7607421875,186.7607421875,39.71484375,24.28515625
-165.88134765625,189.88134765625,40.28564453125,23.71435546875
-157.85107421875,197.85107421875,38.48095703125,21.51904296875
-176.75537109375,180.75537109375,48.25830078125,31.74169921875
-172.30419921875,188.30419921875,39.6884765625,24.3115234375
-171.904296875,191.904296875,44.93408203125,31.06591796875
-172.89892578125,192.89892578125,40.19580078125,27.80419921875
-162.87744140625,202.87744140625,49.66259765625,38.33740234375
-177.89306640625,185.89306640625,35.46044921875,24.53955078125
-174.4453125,186.4453125,53.6376953125,42.3623046875
-161.2138671875,197.2138671875,54.16845703125,41.83154296875
-158.7138671875,198.7138671875,40.962890625,27.037109375
-161.0390625,197.0390625,49.86328125,34.13671875
-161.85205078125,197.85205078125,44.65283203125,27.34716796875
-168.58203125,192.58203125,39.08544921875,20.91455078125
-172.7294921875,188.7294921875,54.97265625,37.02734375
-164.0888671875,196.0888671875,58.27001953125,41.72998046875
-170.82275390625,186.82275390625,43.14306640625,28.85693359375
-165.35009765625,189.35009765625,49.94482421875,38.05517578125
-172.16064453125,180.16064453125,53.09033203125,42.90966796875
-157.63525390625,193.63525390625,50.8798828125,41.1201171875
-155.93603515625,195.93603515625,45.35205078125,34.64794921875
-172.98388671875,180.98388671875,52.2431640625,39.7568359375
-158.4990234375,198.4990234375,55.0947265625,40.9052734375
-174.1083984375,186.1083984375,53.46435546875,38.53564453125
-163.4814453125,199.4814453125,47.13916015625,32.86083984375
-180.44091796875,184.44091796875,36.23291015625,23.76708984375
-176.98388671875,188.98388671875,39.1171875,28.8828125
-171.22705078125,195.22705078125,54.232421875,45.767578125
-171.3115234375,195.3115234375,33.8759765625,26.1240234375
-167.3232421875,199.3232421875,34.0859375,25.9140625
-175.27783203125,191.27783203125,34.6513671875,25.3486328125
-171.177734375,195.177734375,47.2490234375,36.7509765625
-175.07568359375,191.07568359375,53.61962890625,42.38037109375
-177.09033203125,189.09033203125,37.685546875,26.314453125
-165.337890625,201.337890625,37.56396484375,26.43603515625
-177.84375,189.84375,39.46826171875,28.53173828125
-170.50244140625,198.50244140625,47.55322265625,36.44677734375
-167.1083984375,203.1083984375,41.80859375,30.19140625
-175.4501953125,195.4501953125,38.07080078125,25.92919921875
-165.3857421875,205.3857421875,54.13525390625,41.86474609375
-178.90478515625,190.90478515625,35.9013671875,24.0986328125
-164.140625,204.140625,39.43896484375,28.56103515625
-163.33251953125,203.33251953125,42.95654296875,33.04345703125
-172.73583984375,192.73583984375,50.68408203125,41.31591796875
-162.5107421875,202.5107421875,44.7578125,35.2421875
-164.6455078125,200.6455078125,51.1630859375,40.8369140625
-180.97021484375,184.97021484375,39.76416015625,28.23583984375
-177.2412109375,189.2412109375,40.38330078125,27.61669921875
-175.2568359375,191.2568359375,46.89111328125,33.10888671875
-174.958984375,190.958984375,57.22900390625,42.77099609375
-162.46044921875,202.46044921875,43.3896484375,28.6103515625
-165.99365234375,197.99365234375,55.3623046875,40.6376953125
-171.79638671875,191.79638671875,51.11376953125,36.88623046875
-177.97412109375,185.97412109375,42.59326171875,29.40673828125
-164.4404296875,200.4404296875,37.767578125,26.232421875
-168.9658203125,196.9658203125,52.65478515625,43.34521484375
-173.2919921875,193.2919921875,35.3505859375,28.6494140625
-167.267578125,199.267578125,34.0439453125,29.9560546875
-162.9130859375,202.9130859375,30.97900390625,29.02099609375
-164.4169921875,200.4169921875,34.3837890625,33.6162109375
-176.05322265625,188.05322265625,44.376953125,43.623046875
-180.04736328125,184.04736328125,32.91845703125,31.08154296875
-172.45751953125,192.45751953125,33.8232421875,30.1767578125
-175.14404296875,191.14404296875,40.8447265625,35.1552734375
-167.8642578125,199.8642578125,35.771484375,28.228515625
-168.427734375,200.427734375,34.49658203125,25.50341796875
-164.79931640625,204.79931640625,55.017578125,44.982421875
-175.09130859375,195.09130859375,35.39697265625,24.60302734375
-177.4609375,193.4609375,43.6943359375,32.3056640625
-171.99462890625,199.99462890625,45.92529296875,34.07470703125
-182.6318359375,190.6318359375,50.05078125,37.94921875
-167.1845703125,207.1845703125,54.00634765625,41.99365234375
-181.421875,193.421875,41.75439453125,30.24560546875
-181.197265625,193.197265625,37.33203125,26.66796875
-166.55029296875,206.55029296875,34.8642578125,25.1357421875
-167.7060546875,203.7060546875,34.53759765625,25.46240234375
-176.97705078125,192.97705078125,54.51904296875,45.48095703125
-166.60400390625,202.60400390625,44.87646484375,35.12353515625
-182.6435546875,186.6435546875,47.5244140625,36.4755859375
-180.95068359375,188.95068359375,56.251953125,43.748046875
-165.27392578125,205.27392578125,46.81103515625,33.18896484375
-175.3935546875,195.3935546875,43.02685546875,28.97314453125
-181.24560546875,189.24560546875,44.8720703125,31.1279296875
-176.935546875,192.935546875,56.4697265625,43.5302734375
-174.6796875,194.6796875,50.02099609375,37.97900390625
-164.666015625,204.666015625,55.701171875,44.298828125
-172.9365234375,196.9365234375,35.58447265625,24.41552734375
-169.34619140625,201.34619140625,39.62451171875,28.37548828125
-175.6533203125,195.6533203125,41.70068359375,30.29931640625
-167.67626953125,203.67626953125,37.69287109375,26.30712890625
-173.4287109375,197.4287109375,53.5478515625,42.4521484375
-171.1103515625,199.1103515625,37.30126953125,26.69873046875
-180.986328125,188.986328125,49.056640625,38.943359375
-175.2080078125,195.2080078125,34.93505859375,25.06494140625
-177.71533203125,193.71533203125,55.01611328125,44.98388671875
-180.25390625,192.25390625,53.30029296875,42.69970703125
-180.525390625,192.525390625,45.70751953125,34.29248046875
-174.3740234375,198.3740234375,54.1044921875,41.8955078125
-183.89306640625,187.89306640625,42.34326171875,29.65673828125
-165.3779296875,205.3779296875,54.3134765625,41.6865234375
-169.14697265625,201.14697265625,49.98828125,38.01171875
-183.3466796875,187.3466796875,37.45947265625,26.54052734375
-177.8447265625,193.8447265625,42.9287109375,33.0712890625
-166.30615234375,206.30615234375,44.65087890625,35.34912109375
-184.36669921875,188.36669921875,36.8291015625,27.1708984375
-175.84033203125,195.84033203125,45.5078125,34.4921875
-178.8427734375,190.8427734375,44.52099609375,31.47900390625
-169.75048828125,197.75048828125,55.53515625,40.46484375
-175.02685546875,191.02685546875,38.18212890625,21.81787109375
-172.98828125,192.98828125,48.21630859375,31.78369140625
-169.64208984375,197.64208984375,57.60546875,42.39453125
-172.6689453125,196.6689453125,48.53173828125,35.46826171875
-183.58203125,187.58203125,45.30322265625,34.69677734375
-167.96142578125,203.96142578125,52.20947265625,43.79052734375
-165.64892578125,205.64892578125,45.40478515625,38.59521484375
-178.8125,190.8125,42.869140625,37.130859375
-171.85009765625,195.85009765625,46.455078125,41.544921875
-171.20166015625,195.20166015625,36.0,32.0
-175.1572265625,191.1572265625,45.41552734375,42.58447265625
-171.72607421875,195.72607421875,38.73583984375,37.26416015625
-168.64453125,200.64453125,42.087890625,41.912109375
-169.5029296875,201.5029296875,37.62890625,38.37109375
-167.94677734375,203.94677734375,31.4765625,32.5234375
-171.84765625,199.84765625,41.6669921875,42.3330078125
-179.369140625,191.369140625,36.14892578125,35.85107421875
