V1,V2,V3,V4
6.5,5.5,44.0,44.0
20.0,20.0,44.0,44.0
2.673095703125,1.326904296875,36.734375,39.265625
20.53662109375,19.46337890625,38.3046875,41.6953125
19.428955078125,20.571044921875,44.62939453125,47.37060546875
9.79833984375,14.20166015625,45.2431640625,46.7568359375
14.4326171875,21.5673828125,47.4677734375,48.5322265625
13.9437255859375,22.0562744140625,28.77783203125,31.22216796875
8.36474609375,15.63525390625,39.1904296875,44.8095703125
11.136474609375,16.863525390625,45.3486328125,54.6513671875
17.50390625,22.49609375,30.19921875,41.80078125
15.0384521484375,20.9615478515625,30.435546875,41.564453125
3.9273681640625,12.0726318359375,30.06103515625,37.93896484375
4.816162109375,15.183837890625,44.37451171875,47.62548828125
4.3404541015625,15.6595458984375,46.388671875,45.611328125
14.691650390625,25.308349609375,43.39013671875,40.60986328125
7.523193359375,16.476806640625,31.29345703125,28.70654296875
8.226318359375,15.773681640625,38.59375,37.40625
12.347412109375,19.652587890625,36.0166015625,35.9833984375
1.8587646484375,10.1412353515625,40.1474609375,39.8525390625
-2.891845703125,6.891845703125,39.1669921875,36.8330078125
12.5478515625,23.4521484375,36.861328125,31.138671875
2.4417724609375,13.5582275390625,36.7236328125,27.2763671875
-3.23681640625,7.23681640625,56.13720703125,43.86279296875
-0.6978759765625,8.6978759765625,40.611328125,27.388671875
7.8875732421875,16.1124267578125,49.99755859375,38.00244140625
12.538330078125,19.461669921875,48.595703125,39.404296875
13.4439697265625,18.5560302734375,48.99951171875,43.00048828125
14.773193359375,17.226806640625,39.77294921875,36.22705078125
8.4281005859375,7.5718994140625,49.1669921875,46.8330078125
7.9576416015625,4.0423583984375,45.1044921875,42.8955078125
6.7498779296875,1.2501220703125,41.38427734375,38.61572265625
20.395263671875,15.604736328125,47.91796875,44.08203125
20.9931640625,19.0068359375,38.7919921875,33.2080078125
15.18212890625,16.81787109375,38.10791015625,29.89208984375
7.876708984375,12.123291015625,51.6865234375,40.3134765625
1.836669921875,6.163330078125,40.986328125,27.013671875
3.2689208984375,4.7310791015625,53.32666015625,38.67333984375
11.6812744140625,8.3187255859375,38.29833984375,25.70166015625
8.0599365234375,-0.0599365234375,44.07373046875,35.92626953125
13.32666015625,2.67333984375,31.365234375,28.634765625
8.842529296875,-0.842529296875,49.09619140625,50.90380859375
10.6990966796875,5.3009033203125,45.994140625,50.005859375
15.6544189453125,16.3455810546875,40.32763671875,43.67236328125
-1.234375,5.234375,35.8583984375,36.1416015625
6.9410400390625,17.0589599609375,35.95556640625,32.04443359375
2.6187744140625,13.3812255859375,39.759765625,32.240234375
13.6922607421875,22.3077392578125,44.4677734375,35.5322265625
15.653076171875,20.346923828125,33.66943359375,26.33056640625
7.816650390625,8.183349609375,49.57275390625,46.42724609375
17.4854736328125,14.5145263671875,29.02294921875,30.97705078125
6.052734375,1.947265625,29.14990234375,34.85009765625
5.101806640625,2.898193359375,42.8583984375,49.1416015625
8.562744140625,11.437255859375,38.345703125,41.654296875
12.83203125,23.16796875,31.0068359375,28.9931640625
-1.2242431640625,17.2242431640625,51.6982421875,44.3017578125
-6.4681396484375,18.4681396484375,47.291015625,36.708984375
-9.8743896484375,17.8743896484375,53.17236328125,42.82763671875
3.0152587890625,28.9847412109375,47.4931640625,40.5068359375
-6.19970703125,14.19970703125,47.0498046875,44.9501953125
5.2918701171875,18.7081298828125,30.92138671875,33.07861328125
13.9791259765625,22.0208740234375,31.9765625,36.0234375
-1.2904052734375,5.2904052734375,40.50341796875,43.49658203125
3.2418212890625,12.7581787109375,30.08837890625,29.91162109375
4.37255859375,19.62744140625,39.85107421875,36.14892578125
-2.4571533203125,18.4571533203125,34.875,29.125
-1.892578125,21.892578125,32.65625,27.34375
0.6534423828125,23.3465576171875,43.298828125,40.701171875
8.7476806640625,27.2523193359375,37.40625,38.59375
9.2545166015625,22.7454833984375,31.70166015625,36.29833984375
11.0469970703125,20.9530029296875,40.64208984375,47.35791015625
-2.3359375,6.3359375,30.216796875,37.783203125
5.49365234375,14.50634765625,26.02880859375,33.97119140625
15.3800048828125,24.6199951171875,41.59716796875,50.40283203125
5.9521484375,14.0478515625,40.6513671875,51.3486328125
1.173828125,6.826171875,31.283203125,44.716796875
2.3878173828125,5.6121826171875,33.91455078125,50.08544921875
2.7489013671875,5.2510986328125,21.14453125,38.85546875
11.7012939453125,16.2987060546875,31.5927734375,48.4072265625
9.1893310546875,18.8106689453125,39.73681640625,52.26318359375
-2.4715576171875,14.4715576171875,31.7958984375,36.2041015625
-0.912353515625,24.912353515625,53.63037109375,46.36962890625
-5.9530029296875,29.9530029296875,60.74267578125,39.25732421875
-15.5780029296875,31.5780029296875,64.333984375,27.666015625
-9.6912841796875,49.6912841796875,61.4833984375,10.5166015625
-17.864013671875,53.864013671875,81.36376953125,18.63623046875
-29.3070068359375,53.3070068359375,73.4921875,2.5078125
-41.1031494140625,49.1031494140625,71.81201171875,-3.81201171875
-30.5968017578125,62.5968017578125,74.65869140625,-2.65869140625
-41.7286376953125,49.7286376953125,74.5654296875,-2.5654296875
-31.1368408203125,55.1368408203125,70.083984375,-6.083984375
-31.9693603515625,47.9693603515625,87.646484375,12.353515625
-17.45556640625,57.45556640625,67.50537109375,-7.50537109375
-34.4276123046875,38.4276123046875,69.73876953125,-5.73876953125
-18.9779052734375,54.9779052734375,80.28857421875,3.71142578125
-30.420654296875,46.420654296875,68.990234375,-8.990234375
-29.615234375,49.615234375,83.63134765625,4.36865234375
-21.538818359375,57.538818359375,80.03125,-0.03125
-23.817138671875,51.817138671875,70.140625,-10.140625
-18.9024658203125,50.9024658203125,90.08251953125,9.91748046875
-25.8258056640625,37.8258056640625,72.06494140625,-8.06494140625
-17.691162109375,41.691162109375,82.21533203125,1.78466796875
-19.2449951171875,39.2449951171875,90.47265625,9.52734375
-26.6593017578125,34.6593017578125,82.61767578125,1.38232421875
-23.55712890625,43.55712890625,90.44384765625,9.55615234375
-29.1842041015625,45.1842041015625,69.92822265625,-9.92822265625
-28.6429443359375,52.6429443359375,87.2978515625,8.7021484375
-37.1441650390625,49.1441650390625,70.87255859375,-6.87255859375
-42.2340087890625,46.2340087890625,76.87060546875,-0.87060546875
-35.945068359375,51.945068359375,79.27392578125,0.72607421875
-26.7674560546875,58.7674560546875,81.85546875,2.14453125
-27.37646484375,55.37646484375,90.359375,9.640625
-24.248046875,56.248046875,82.6904296875,1.3095703125
-25.4227294921875,53.4227294921875,74.98583984375,-6.98583984375
-18.580078125,58.580078125,89.4931640625,6.5068359375
-25.3658447265625,49.3658447265625,88.31787109375,3.68212890625
-23.6998291015625,47.6998291015625,93.24658203125,6.75341796875
-27.845703125,39.845703125,89.8037109375,2.1962890625
-12.2315673828125,52.2315673828125,83.47216796875,-3.47216796875
-21.1751708984375,41.1751708984375,78.01123046875,-6.01123046875
-24.743896484375,36.743896484375,81.67138671875,2.32861328125
-24.86279296875,36.86279296875,67.21484375,-7.21484375
-21.5526123046875,41.5526123046875,77.70556640625,6.29443359375
-25.04248046875,41.04248046875,68.0400390625,-4.0400390625
-23.59619140625,47.59619140625,70.42822265625,-6.42822265625
-25.156982421875,53.156982421875,80.13818359375,-4.13818359375
-37.1146240234375,49.1146240234375,87.7275390625,-3.7275390625
-42.4443359375,50.4443359375,85.6875,-9.6875
-38.19580078125,58.19580078125,77.16943359375,-17.16943359375
-28.0406494140625,68.0406494140625,86.392578125,-2.392578125
-36.492431640625,56.492431640625,82.51123046875,1.48876953125
-24.642822265625,64.642822265625,71.01806640625,-3.01806640625
-27.55126953125,59.55126953125,73.04833984375,2.95166015625
-27.6610107421875,59.6610107421875,72.92529296875,3.07470703125
-32.6126708984375,56.6126708984375,84.1884765625,11.8115234375
-39.555419921875,51.555419921875,69.99072265625,-5.99072265625
-37.7237548828125,53.7237548828125,85.53515625,6.46484375
-32.8782958984375,56.8782958984375,88.37939453125,7.62060546875
-27.3651123046875,59.3651123046875,90.47265625,9.52734375
-33.8416748046875,49.8416748046875,76.0478515625,-4.0478515625
-22.9267578125,58.9267578125,79.47900390625,0.52099609375
-32.9501953125,48.9501953125,87.13037109375,8.86962890625
-23.87353515625,59.87353515625,73.2021484375,-5.2021484375
-27.341796875,59.341796875,85.671875,6.328125
-40.823974609375,48.823974609375,72.27294921875,-8.27294921875
-43.79833984375,47.79833984375,88.64208984375,7.35791015625
-41.932861328125,49.932861328125,72.50146484375,-8.50146484375
-37.1982421875,53.1982421875,81.81884765625,2.18115234375
-39.8677978515625,47.8677978515625,70.8525390625,-6.8525390625
-22.4112548828125,62.4112548828125,86.0576171875,9.9423828125
-31.3343505859375,51.3343505859375,75.9072265625,0.0927734375
-38.9942626953125,42.9942626953125,88.67724609375,11.32275390625
-25.459716796875,57.459716796875,72.267578125,-8.267578125
-32.4530029296875,52.4530029296875,72.15576171875,-12.15576171875
-29.46826171875,57.46826171875,73.62158203125,-13.62158203125
-34.0225830078125,54.0225830078125,86.072265625,-2.072265625
-35.9273681640625,51.9273681640625,73.37744140625,-13.37744140625
-25.406494140625,61.406494140625,81.9423828125,-1.9423828125
-30.98828125,54.98828125,84.49365234375,3.50634765625
-41.1800537109375,45.1800537109375,87.68603515625,8.31396484375
-28.1082763671875,60.1082763671875,83.7587890625,4.2412109375
-41.34814453125,49.34814453125,90.4052734375,9.5947265625
-42.10205078125,50.10205078125,87.00537109375,4.99462890625
-25.635009765625,65.635009765625,76.9951171875,-4.9951171875
-35.7386474609375,51.7386474609375,78.18310546875,-2.18310546875
-34.952392578125,46.952392578125,78.8408203125,1.1591796875
-30.4013671875,46.4013671875,83.5380859375,8.4619140625
-27.2880859375,47.2880859375,74.890625,1.109375
-34.2757568359375,42.2757568359375,71.23779296875,-3.23779296875
-29.074951171875,53.074951171875,76.4560546875,-0.4560546875
-34.4906005859375,54.4906005859375,77.95654296875,-1.95654296875
-26.9527587890625,66.9527587890625,84.98046875,3.01953125
-45.2760009765625,49.2760009765625,78.97021484375,-2.97021484375
-27.257568359375,63.257568359375,77.8681640625,-1.8681640625
-35.800048828125,47.800048828125,82.15869140625,5.84130859375
-20.4588623046875,56.4588623046875,82.63623046875,9.36376953125
-22.6473388671875,50.6473388671875,66.0087890625,-6.0087890625
-20.9537353515625,52.9537353515625,86.55126953125,13.44873046875
-20.9718017578125,56.9718017578125,73.99853515625,-1.99853515625
-21.6903076171875,61.6903076171875,69.72900390625,-9.72900390625
-24.100341796875,64.100341796875,77.09716796875,-5.09716796875
-37.62158203125,53.62158203125,83.6884765625,0.3115234375
-34.18017578125,58.18017578125,89.39599609375,6.60400390625
-38.0308837890625,54.0308837890625,70.3466796875,-10.3466796875
-35.5079345703125,55.5079345703125,84.81689453125,7.18310546875
-36.822021484375,52.822021484375,87.1650390625,12.8349609375
-26.0068359375,62.0068359375,77.7353515625,6.2646484375
-37.0078125,49.0078125,72.779296875,3.220703125
-33.81787109375,49.81787109375,64.35595703125,-4.35595703125
-24.5504150390625,56.5504150390625,76.36328125,7.63671875
-19.3883056640625,59.3883056640625,84.6220703125,15.3779296875
-28.48291015625,48.48291015625,64.998046875,-4.998046875
-33.8555908203125,41.8555908203125,67.39013671875,-3.39013671875
-35.392578125,39.392578125,73.7412109375,2.2587890625
-26.916259765625,46.916259765625,72.00146484375,-0.00146484375
-20.31494140625,52.31494140625,82.15625,9.84375
-17.6270751953125,53.6270751953125,66.248046875,-6.248046875
-33.0289306640625,37.0289306640625,82.380859375,9.619140625
-16.73046875,52.73046875,80.6484375,7.3515625
-26.85693359375,42.85693359375,85.07275390625,10.92724609375
-21.408203125,49.408203125,81.51513671875,6.48486328125
-24.3125,48.3125,77.76513671875,2.23486328125
-33.5040283203125,41.5040283203125,83.68701171875,8.31298828125
-34.9339599609375,42.9339599609375,77.40478515625,2.59521484375
-22.51220703125,58.51220703125,69.30859375,-5.30859375
-24.0428466796875,60.0428466796875,81.8369140625,6.1630859375
-35.2213134765625,51.2213134765625,73.1689453125,-5.1689453125
-31.7313232421875,55.7313232421875,79.046875,-3.046875
-33.4337158203125,53.4337158203125,78.89794921875,-6.89794921875
-38.5390625,46.5390625,82.12841796875,-6.12841796875
-23.6168212890625,59.6168212890625,84.4501953125,-4.4501953125
-37.3514404296875,45.3514404296875,77.9736328125,-9.9736328125
-30.145263671875,54.145263671875,75.078125,-11.078125
-25.810546875,61.810546875,86.185546875,1.814453125
-43.5947265625,47.5947265625,87.583984375,4.416015625
-40.587646484375,52.587646484375,85.33544921875,2.66455078125
-26.29296875,66.29296875,73.291015625,-9.291015625
-28.997802734375,60.997802734375,89.21728515625,6.78271484375
-23.6690673828125,63.6690673828125,76.91943359375,-4.91943359375
-37.39404296875,49.39404296875,76.3916015625,-4.3916015625
-30.69384765625,58.69384765625,75.833984375,-3.833984375
-45.1767578125,49.1767578125,83.556640625,4.443359375
-41.7557373046875,57.7557373046875,81.7685546875,2.2314453125
-49.2760009765625,53.2760009765625,70.38330078125,-10.38330078125
-39.1251220703125,63.1251220703125,88.98779296875,7.01220703125
-39.4898681640625,59.4898681640625,83.04150390625,0.95849609375
-37.1729736328125,57.1729736328125,74.23486328125,-6.23486328125
-27.1766357421875,63.1766357421875,84.75732421875,7.24267578125
-24.283203125,64.283203125,75.27392578125,0.72607421875
-34.7900390625,54.7900390625,72.556640625,-0.556640625
-44.4296875,48.4296875,81.009765625,6.990234375
-34.48486328125,62.48486328125,76.44775390625,-0.44775390625
-34.0572509765625,66.0572509765625,78.20654296875,-2.20654296875
-42.40869140625,58.40869140625,81.54833984375,-1.54833984375
-39.267822265625,59.267822265625,88.013671875,3.986328125
-38.9862060546875,54.9862060546875,83.5361328125,0.4638671875
-38.4495849609375,50.4495849609375,82.32275390625,1.67724609375
-32.6917724609375,52.6917724609375,78.66064453125,1.33935546875
-32.3896484375,52.3896484375,68.82373046875,-4.82373046875
-35.503662109375,51.503662109375,85.1259765625,14.8740234375
-29.316162109375,61.316162109375,67.98583984375,0.01416015625
-30.8485107421875,62.8485107421875,67.859375,0.140625
-29.3670654296875,65.3670654296875,73.01220703125,2.98779296875
-34.6964111328125,58.6964111328125,81.2548828125,6.7451171875
-37.1754150390625,53.1754150390625,75.8466796875,-3.8466796875
-29.367431640625,57.367431640625,73.74365234375,-9.74365234375
-33.736328125,49.736328125,86.1279296875,1.8720703125
-38.47998046875,42.47998046875,76.89599609375,-4.89599609375
-33.5517578125,45.5517578125,82.7685546875,5.2314453125
-24.8116455078125,52.8116455078125,78.9306640625,5.0693359375
-22.196044921875,54.196044921875,84.3447265625,11.6552734375
-19.8251953125,55.8251953125,77.2119140625,2.7880859375
-31.98681640625,43.98681640625,82.8798828125,5.1201171875
-23.0029296875,55.0029296875,82.3330078125,1.6669921875
-31.0579833984375,51.0579833984375,72.83837890625,-8.83837890625
-32.03369140625,56.03369140625,90.3974609375,9.6025390625
-27.4178466796875,67.4178466796875,83.634765625,4.365234375
-36.347412109375,64.347412109375,85.30615234375,6.69384765625
-39.8779296875,63.8779296875,69.77880859375,-9.77880859375
-39.42236328125,63.42236328125,74.80908203125,-6.80908203125
-31.1326904296875,67.1326904296875,79.73388671875,-3.73388671875
-33.9681396484375,57.9681396484375,89.9580078125,6.0419921875
-31.335693359375,55.335693359375,89.35009765625,6.64990234375
-40.43359375,44.43359375,82.3271484375,1.6728515625
-31.6290283203125,55.6290283203125,81.5546875,2.4453125
-44.1827392578125,48.1827392578125,73.45849609375,-5.45849609375
-42.498779296875,54.498779296875,81.94091796875,2.05908203125
-28.8448486328125,68.8448486328125,70.4697265625,-10.4697265625
-30.2799072265625,62.2799072265625,82.5029296875,1.4970703125
-23.2906494140625,59.2906494140625,85.90185546875,6.09814453125
-27.719482421875,43.719482421875,81.05908203125,2.94091796875
-25.8726806640625,37.8726806640625,68.580078125,-8.580078125
-25.3004150390625,37.3004150390625,72.84423828125,-4.84423828125
-31.9681396484375,35.9681396484375,77.6845703125,-1.6845703125
-34.349853515625,42.349853515625,82.46728515625,1.53271484375
-24.3358154296875,60.3358154296875,72.4814453125,-8.4814453125
-24.3712158203125,64.3712158203125,89.43115234375,10.56884765625
-32.1436767578125,56.1436767578125,77.6435546875,2.3564453125
-22.4747314453125,62.4747314453125,67.8818359375,-3.8818359375
-20.6285400390625,60.6285400390625,76.87158203125,7.12841796875
-31.544677734375,47.544677734375,84.919921875,15.080078125
-23.477783203125,55.477783203125,79.80029296875,8.19970703125
-36.1591796875,44.1591796875,86.9287109375,13.0712890625
-33.203369140625,49.203369140625,67.708984375,-7.708984375
-34.4058837890625,50.4058837890625,81.83837890625,6.16162109375
-31.73974609375,55.73974609375,69.43701171875,-5.43701171875
-27.153564453125,63.153564453125,66.9501953125,-6.9501953125
-40.398193359375,52.398193359375,80.83837890625,7.16162109375
-41.0545654296875,53.0545654296875,79.27685546875,4.72314453125
-28.7445068359375,64.7445068359375,78.00048828125,1.99951171875
-35.38232421875,55.38232421875,72.50244140625,-4.50244140625
-39.269287109375,47.269287109375,76.37841796875,-0.37841796875
-36.9483642578125,44.9483642578125,81.62646484375,6.37353515625
-34.916259765625,42.916259765625,78.63818359375,5.36181640625
-21.42041015625,53.42041015625,70.00390625,-2.00390625
-34.480712890625,38.480712890625,74.18701171875,1.81298828125
-28.0760498046875,44.0760498046875,69.33203125,-5.33203125
-24.2470703125,48.2470703125,83.15673828125,4.84326171875
-34.9755859375,38.9755859375,83.03271484375,0.96728515625
-31.953125,43.953125,92.21142578125,7.78857421875
-26.5106201171875,50.5106201171875,74.140625,-10.140625
-27.8853759765625,47.8853759765625,88.79638671875,7.20361328125
-21.720947265625,49.720947265625,86.7333984375,9.2666015625
-28.440185546875,36.440185546875,74.8701171875,1.1298828125
-15.1717529296875,43.1717529296875,70.0654296875,-2.0654296875
-17.1962890625,37.1962890625,70.70654296875,-2.70654296875
-23.229248046875,31.229248046875,84.55322265625,7.44677734375
-21.00390625,37.00390625,80.90380859375,-0.90380859375
-25.4508056640625,37.4508056640625,90.97802734375,5.02197265625
-31.3509521484375,35.3509521484375,84.2373046875,-4.2373046875
-24.03125,44.03125,76.490234375,-12.490234375
-23.652587890625,43.652587890625,75.7646484375,-11.7646484375
-22.9755859375,42.9755859375,80.20166015625,-4.20166015625
-30.843017578125,34.843017578125,72.10791015625,-8.10791015625
-25.7039794921875,41.7039794921875,68.04345703125,-8.04345703125
-33.39013671875,37.39013671875,70.7060546875,-2.7060546875
-33.1971435546875,41.1971435546875,76.58447265625,3.41552734375
-24.221435546875,52.221435546875,71.583984375,-3.583984375
-17.817138671875,57.817138671875,68.984375,-8.984375
-23.9556884765625,47.9556884765625,71.8505859375,-7.8505859375
-17.2679443359375,49.2679443359375,71.59912109375,-7.59912109375
-20.7178955078125,40.7178955078125,68.36181640625,-8.36181640625
-25.1055908203125,33.1055908203125,76.91552734375,3.08447265625
-26.731689453125,30.731689453125,86.21533203125,13.78466796875
-27.3665771484375,31.3665771484375,70.78955078125,-2.78955078125
-26.4697265625,34.4697265625,72.41162109375,-4.41162109375
-27.4847412109375,35.4847412109375,70.2392578125,-10.2392578125
-14.088623046875,50.088623046875,71.3662109375,-11.3662109375
-26.3134765625,38.3134765625,75.3681640625,-7.3681640625
-18.44580078125,46.44580078125,82.51123046875,1.48876953125
-30.6883544921875,34.6883544921875,71.4150390625,-7.4150390625
-12.7890625,52.7890625,74.52392578125,-2.52392578125
-23.928466796875,39.928466796875,83.7265625,8.2734375
-26.9970703125,30.9970703125,76.41064453125,3.58935546875
-9.122802734375,37.122802734375,69.8740234375,2.1259765625
-12.1470947265625,16.1470947265625,75.80517578125,16.19482421875
15.20703125,20.79296875,74.52734375,25.47265625
25.533203125,6.466796875,62.87841796875,25.12158203125
35.2166748046875,-7.2166748046875,57.79345703125,30.20654296875
36.9384765625,-24.9384765625,49.8330078125,30.1669921875
41.9881591796875,-33.9881591796875,38.9951171875,25.0048828125
60.2777099609375,-24.2777099609375,40.89990234375,31.10009765625
56.1446533203125,-32.1446533203125,37.1640625,30.8359375
62.130615234375,-26.130615234375,41.66943359375,38.33056640625
62.873046875,-22.873046875,32.55224609375,31.44775390625
49.08349609375,-33.08349609375,42.05029296875,41.94970703125
47.4876708984375,-31.4876708984375,50.2861328125,49.7138671875
50.6656494140625,-26.6656494140625,37.14501953125,34.85498046875
40.87158203125,-36.87158203125,42.24462890625,37.75537109375
57.9527587890625,-21.9527587890625,33.08056640625,26.91943359375
49.4454345703125,-33.4454345703125,37.2431640625,30.7568359375
44.7972412109375,-40.7972412109375,44.63720703125,39.36279296875
51.6009521484375,-35.6009521484375,39.50634765625,36.49365234375
55.7215576171875,-31.7215576171875,46.32373046875,45.67626953125
45.294677734375,-41.294677734375,45.5634765625,46.4365234375
56.60986328125,-28.60986328125,39.4970703125,40.5029296875
47.928955078125,-35.928955078125,50.1005859375,49.8994140625
55.34033203125,-27.34033203125,31.078125,28.921875
46.76806640625,-34.76806640625,40.009765625,35.990234375
46.1480712890625,-34.1480712890625,42.505859375,37.494140625
57.6221923828125,-21.6221923828125,46.3564453125,41.6435546875
43.5634765625,-35.5634765625,45.5751953125,42.4248046875
46.366943359375,-34.366943359375,32.369140625,31.630859375
44.1427001953125,-40.1427001953125,43.05322265625,44.94677734375
48.566162109375,-40.566162109375,43.9169921875,48.0830078125
60.979736328125,-32.979736328125,37.1787109375,42.8212890625
52.6876220703125,-44.6876220703125,40.93212890625,47.06787109375
59.231689453125,-39.231689453125,45.12841796875,50.87158203125
54.53466796875,-42.53466796875,33.57568359375,38.42431640625
60.8629150390625,-32.8629150390625,28.013671875,31.986328125
62.683837890625,-26.683837890625,36.208984375,39.791015625
52.5191650390625,-32.5191650390625,44.0634765625,47.9365234375
42.865966796875,-38.865966796875,39.6591796875,44.3408203125
44.138671875,-36.138671875,27.25048828125,32.74951171875
50.5631103515625,-30.5631103515625,39.1123046875,44.8876953125
56.003662109375,-28.003662109375,31.4052734375,36.5947265625
57.8822021484375,-29.8822021484375,34.083984375,37.916015625
59.3251953125,-31.3251953125,38.96533203125,41.03466796875
55.578857421875,-35.578857421875,37.8623046875,38.1376953125
60.4813232421875,-28.4813232421875,44.6181640625,43.3818359375
50.6776123046875,-34.6776123046875,39.0029296875,36.9970703125
45.3614501953125,-37.3614501953125,30.638671875,29.361328125
61.592041015625,-21.592041015625,45.1494140625,46.8505859375
51.5919189453125,-35.5919189453125,38.50830078125,45.49169921875
52.4906005859375,-40.4906005859375,23.30517578125,36.69482421875
58.747802734375,-38.747802734375,22.64404296875,41.35595703125
61.030029296875,-37.030029296875,39.61279296875,60.38720703125
50.991943359375,-42.991943359375,20.6728515625,39.3271484375
59.48583984375,-27.48583984375,35.32763671875,48.67236328125
44.1065673828125,-36.1065673828125,38.3671875,45.6328125
48.361083984375,-28.361083984375,36.49267578125,39.50732421875
42.9361572265625,-34.9361572265625,33.01904296875,34.98095703125
61.420166015625,-21.420166015625,42.1396484375,45.8603515625
48.5965576171875,-40.5965576171875,26.7109375,33.2890625
59.087646484375,-35.087646484375,27.67724609375,36.32275390625
52.0184326171875,-44.0184326171875,27.57080078125,36.42919921875
57.3709716796875,-37.3709716796875,26.31005859375,33.68994140625
47.9051513671875,-43.9051513671875,41.3408203125,46.6591796875
58.7216796875,-30.7216796875,43.98974609375,48.01025390625
48.7333984375,-40.7333984375,27.82177734375,32.17822265625
62.2625732421875,-30.2625732421875,38.85595703125,45.14404296875
56.9061279296875,-40.9061279296875,31.5322265625,40.4677734375
59.71044921875,-43.71044921875,32.43505859375,43.56494140625
67.615478515625,-39.615478515625,33.9169921875,46.0830078125
73.963134765625,-33.963134765625,39.912109375,52.087890625
56.78173828125,-48.78173828125,30.00341796875,41.99658203125
52.67626953125,-48.67626953125,31.69921875,44.30078125
68.476318359375,-28.476318359375,24.70068359375,39.29931640625
64.880615234375,-28.880615234375,21.02734375,38.97265625
60.2410888671875,-32.2410888671875,37.00146484375,58.99853515625
60.487060546875,-32.487060546875,17.14013671875,42.85986328125
51.1884765625,-43.1884765625,22.02001953125,49.97998046875
55.779052734375,-39.779052734375,18.140625,45.859375
49.8759765625,-45.8759765625,23.69677734375,48.30322265625
65.5185546875,-29.5185546875,24.37255859375,43.62744140625
57.1568603515625,-37.1568603515625,25.29345703125,38.70654296875
63.3673095703125,-31.3673095703125,39.3330078125,48.6669921875
60.466064453125,-36.466064453125,27.64794921875,36.35205078125
54.287353515625,-46.287353515625,34.1552734375,45.8447265625
70.253173828125,-34.253173828125,23.61474609375,40.38525390625
55.6868896484375,-51.6868896484375,35.21240234375,56.78759765625
74.1632080078125,-34.1632080078125,35.95556640625,60.04443359375
69.6871337890625,-37.6871337890625,18.16748046875,41.83251953125
70.6365966796875,-34.6365966796875,29.41064453125,50.58935546875
69.522705078125,-33.522705078125,28.80419921875,47.19580078125
52.745361328125,-48.745361328125,33.57568359375,50.42431640625
56.4696044921875,-44.4696044921875,31.46630859375,48.53369140625
52.6539306640625,-48.6539306640625,22.82470703125,41.17529296875
61.1331787109375,-41.1331787109375,38.2646484375,57.7353515625
65.6805419921875,-37.6805419921875,26.24853515625,45.75146484375
72.0198974609375,-32.0198974609375,24.7822265625,43.2177734375
55.8614501953125,-47.8614501953125,25.54052734375,42.45947265625
52.9993896484375,-48.9993896484375,40.18017578125,55.81982421875
67.419921875,-31.419921875,22.591796875,37.408203125
53.3465576171875,-41.3465576171875,24.92529296875,39.07470703125
51.202880859375,-39.202880859375,29.36376953125,42.63623046875
51.543212890625,-35.543212890625,23.84423828125,36.15576171875
58.9202880859375,-26.9202880859375,38.044921875,49.955078125
61.6744384765625,-25.6744384765625,37.60205078125,50.39794921875
63.7093505859375,-27.7093505859375,28.447265625,43.552734375
54.417236328125,-42.417236328125,30.91015625,49.08984375
68.87060546875,-32.87060546875,29.5869140625,50.4130859375
60.196044921875,-44.196044921875,18.97021484375,41.02978515625
71.9168701171875,-31.9168701171875,35.21630859375,56.78369140625
66.0833740234375,-34.0833740234375,34.1103515625,53.8896484375
51.1602783203125,-43.1602783203125,33.28466796875,50.71533203125
55.804931640625,-31.804931640625,28.45849609375,43.54150390625
60.6824951171875,-20.6824951171875,29.51806640625,42.48193359375
42.3704833984375,-34.3704833984375,36.3955078125,47.6044921875
39.3101806640625,-35.3101806640625,32.931640625,43.068359375
45.7135009765625,-29.7135009765625,28.91015625,39.08984375
49.4608154296875,-29.4608154296875,42.19580078125,53.80419921875
44.0888671875,-40.0888671875,22.9013671875,37.0986328125
58.9278564453125,-30.9278564453125,41.42236328125,58.57763671875
57.3385009765625,-37.3385009765625,24.30078125,43.69921875
50.9171142578125,-46.9171142578125,23.97705078125,44.02294921875
57.582275390625,-41.582275390625,28.578125,47.421875
67.5242919921875,-31.5242919921875,29.81884765625,46.18115234375
55.0594482421875,-43.0594482421875,37.1591796875,50.8408203125
66.466064453125,-30.466064453125,36.123046875,47.876953125
55.900390625,-39.900390625,26.548828125,37.451171875
59.4136962890625,-35.4136962890625,38.63134765625,49.36865234375
65.02294921875,-29.02294921875,44.712890625,55.287109375
60.764892578125,-32.764892578125,33.0068359375,42.9931640625
52.70751953125,-40.70751953125,33.478515625,42.521484375
66.919189453125,-26.919189453125,35.890625,44.109375
53.4345703125,-41.4345703125,27.9560546875,36.0439453125
66.218994140625,-30.218994140625,25.47802734375,34.52197265625
69.1717529296875,-29.1717529296875,36.39892578125,47.60107421875
64.1650390625,-36.1650390625,26.833984375,41.166015625
53.1041259765625,-49.1041259765625,35.07080078125,52.92919921875
65.944580078125,-37.944580078125,19.5595703125,40.4404296875
72.643798828125,-32.643798828125,36.76318359375,59.23681640625
73.1075439453125,-33.1075439453125,20.91455078125,43.08544921875
59.2041015625,-47.2041015625,19.82275390625,40.17724609375
58.8492431640625,-46.8492431640625,34.93212890625,53.06787109375
66.0787353515625,-38.0787353515625,35.572265625,52.427734375
53.036865234375,-49.036865234375,35.31982421875,52.68017578125
67.8780517578125,-31.8780517578125,30.2421875,49.7578125
54.706298828125,-42.706298828125,18.87060546875,41.12939453125
59.6063232421875,-35.6063232421875,29.8896484375,54.1103515625
64.7183837890625,-28.7183837890625,35.74365234375,60.25634765625
52.2186279296875,-40.2186279296875,32.3701171875,55.6298828125
56.1842041015625,-36.1842041015625,23.31298828125,44.68701171875
54.4984130859375,-38.4984130859375,34.02685546875,53.97314453125
66.8984375,-26.8984375,40.19482421875,59.80517578125
53.155517578125,-41.155517578125,27.85986328125,48.14013671875
61.2059326171875,-33.2059326171875,19.3505859375,40.6494140625
67.16064453125,-27.16064453125,29.03662109375,50.96337890625
49.2047119140625,-45.2047119140625,31.09033203125,52.90966796875
63.463134765625,-31.463134765625,21.37890625,42.62109375
59.93017578125,-35.93017578125,19.5966796875,40.4033203125
56.468994140625,-40.468994140625,19.48876953125,40.51123046875
56.906005859375,-40.906005859375,31.072265625,52.927734375
55.1336669921875,-43.1336669921875,34.6337890625,57.3662109375
55.169921875,-43.169921875,38.541015625,61.458984375
57.1229248046875,-41.1229248046875,18.9775390625,41.0224609375
67.13427734375,-31.13427734375,33.77587890625,54.22412109375
69.3140869140625,-29.3140869140625,20.517578125,39.482421875
55.685302734375,-43.685302734375,30.796875,49.203125
60.1422119140625,-40.1422119140625,28.4619140625,47.5380859375
58.4886474609375,-42.4886474609375,23.68505859375,44.31494140625
60.57470703125,-40.57470703125,22.80224609375,45.19775390625
64.427978515625,-36.427978515625,32.076171875,55.923828125
52.2685546875,-48.2685546875,25.58642578125,50.41357421875
60.372314453125,-40.372314453125,37.26123046875,62.73876953125
54.8887939453125,-46.8887939453125,37.00732421875,62.99267578125
71.732177734375,-31.732177734375,24.8134765625,51.1865234375
66.6087646484375,-38.6087646484375,28.80224609375,55.19775390625
67.1650390625,-39.1650390625,27.1533203125,52.8466796875
55.179931640625,-51.179931640625,31.98388671875,56.01611328125
70.69384765625,-34.69384765625,29.1962890625,50.8037109375
67.992431640625,-35.992431640625,40.4814453125,59.5185546875
55.4605712890625,-47.4605712890625,33.41357421875,50.58642578125
69.37109375,-33.37109375,27.68115234375,44.31884765625
67.7088623046875,-35.7088623046875,23.26123046875,40.73876953125
56.1307373046875,-48.1307373046875,38.42236328125,57.57763671875
72.1072998046875,-32.1072998046875,21.57373046875,42.42626953125
57.2005615234375,-45.2005615234375,33.0498046875,54.9501953125
65.2991943359375,-33.2991943359375,39.00634765625,60.99365234375
66.6868896484375,-26.6868896484375,27.39111328125,48.60888671875
49.9285888671875,-37.9285888671875,22.05224609375,41.94775390625
51.6700439453125,-31.6700439453125,26.814453125,45.185546875
46.4493408203125,-34.4493408203125,27.50244140625,44.49755859375
46.56201171875,-34.56201171875,35.8818359375,52.1181640625
57.970947265625,-25.970947265625,21.6513671875,38.3486328125
56.2607421875,-32.2607421875,32.58642578125,51.41357421875
66.6885986328125,-26.6885986328125,34.77587890625,57.22412109375
54.4022216796875,-42.4022216796875,34.779296875,61.220703125
58.7821044921875,-38.7821044921875,23.46533203125,52.53466796875
49.75537109375,-45.75537109375,31.55712890625,60.44287109375
55.8594970703125,-35.8594970703125,37.13671875,62.86328125
49.9942626953125,-37.9942626953125,37.51953125,58.48046875
46.95751953125,-38.95751953125,35.5849609375,52.4150390625
51.0692138671875,-35.0692138671875,42.36962890625,57.63037109375
52.090576171875,-36.090576171875,37.55810546875,54.44189453125
55.4776611328125,-35.4776611328125,33.56494140625,54.43505859375
58.7491455078125,-34.7491455078125,31.23828125,56.76171875
65.7119140625,-29.7119140625,19.44482421875,48.55517578125
56.4287109375,-40.4287109375,18.7158203125,49.2841796875
63.019287109375,-35.019287109375,23.07958984375,52.92041015625
57.505126953125,-41.505126953125,28.15771484375,55.84228515625
53.7841796875,-45.7841796875,27.35693359375,52.64306640625
55.730224609375,-43.730224609375,36.193359375,59.806640625
65.2882080078125,-33.2882080078125,32.4990234375,55.5009765625
56.521484375,-40.521484375,22.43212890625,45.56787109375
57.6099853515625,-37.6099853515625,38.30322265625,61.69677734375
58.84912109375,-34.84912109375,34.35009765625,57.64990234375
64.6234130859375,-28.6234130859375,34.59326171875,57.40673828125
55.2833251953125,-39.2833251953125,20.88330078125,43.11669921875
52.93505859375,-44.93505859375,23.0458984375,44.9541015625
61.230224609375,-41.230224609375,21.0556640625,42.9443359375
71.3251953125,-35.3251953125,29.0771484375,50.9228515625
60.1651611328125,-48.1651611328125,19.3212890625,40.6787109375
73.0316162109375,-33.0316162109375,35.87744140625,56.12255859375
62.064453125,-38.064453125,24.61083984375,43.38916015625
48.38525390625,-44.38525390625,41.2802734375,58.7197265625
47.6427001953125,-39.6427001953125,31.66552734375,48.33447265625
49.20361328125,-37.20361328125,27.66650390625,44.33349609375
49.43310546875,-41.43310546875,27.26904296875,44.73095703125
69.487060546875,-29.487060546875,34.53662109375,53.46337890625
57.70556640625,-49.70556640625,29.630859375,50.369140625
62.387451171875,-50.387451171875,18.82080078125,41.17919921875
70.55810546875,-42.55810546875,20.41162109375,43.58837890625
60.3848876953125,-48.3848876953125,34.54443359375,57.45556640625
71.072021484375,-31.072021484375,27.0771484375,48.9228515625
62.28564453125,-34.28564453125,39.640625,60.359375
55.37158203125,-39.37158203125,19.86669921875,40.13330078125
54.73046875,-42.73046875,19.63525390625,40.36474609375
71.633544921875,-31.633544921875,37.14208984375,58.85791015625
68.5831298828125,-40.5831298828125,38.732421875,61.267578125
68.028564453125,-44.028564453125,22.6669921875,45.3330078125
65.1011962890625,-45.1011962890625,24.9951171875,47.0048828125
64.0311279296875,-40.0311279296875,25.52783203125,46.47216796875
50.042724609375,-46.042724609375,25.94873046875,46.05126953125
58.794677734375,-30.794677734375,39.9521484375,60.0478515625
51.599853515625,-35.599853515625,39.39013671875,60.60986328125
62.7911376953125,-26.7911376953125,18.4091796875,41.5908203125
51.54248046875,-43.54248046875,21.44189453125,46.55810546875
60.269775390625,-40.269775390625,37.015625,62.984375
67.4462890625,-35.4462890625,29.41748046875,54.58251953125
64.4029541015625,-36.4029541015625,32.47705078125,55.52294921875
63.690185546875,-31.690185546875,33.55859375,54.44140625
62.78076171875,-26.78076171875,31.8857421875,52.1142578125
57.2841796875,-29.2841796875,28.99609375,51.00390625
64.084228515625,-24.084228515625,25.044921875,50.955078125
62.8912353515625,-30.8912353515625,32.74365234375,63.25634765625
58.4412841796875,-42.4412841796875,18.9873046875,53.0126953125
55.174072265625,-51.174072265625,30.3798828125,65.6201171875
65.975341796875,-41.975341796875,28.96630859375,63.03369140625
70.601318359375,-34.601318359375,24.2744140625,55.7255859375
63.665283203125,-35.665283203125,15.59033203125,44.40966796875
50.29736328125,-42.29736328125,24.32470703125,51.67529296875
57.6815185546875,-29.6815185546875,18.2333984375,45.7666015625
44.631103515625,-40.631103515625,33.4814453125,62.5185546875
45.3333740234375,-41.3333740234375,18.52587890625,49.47412109375
51.3270263671875,-39.3270263671875,25.8701171875,58.1298828125
59.7425537109375,-35.7425537109375,27.80712890625,60.19287109375
59.7056884765625,-39.7056884765625,28.27734375,59.72265625
52.720703125,-48.720703125,22.9130859375,53.0869140625
64.8590087890625,-36.8590087890625,15.28076171875,44.71923828125
68.64306640625,-32.64306640625,19.1123046875,48.8876953125
60.7117919921875,-40.7117919921875,22.43310546875,53.56689453125
53.4727783203125,-49.4727783203125,21.47119140625,54.52880859375
56.984130859375,-48.984130859375,16.47900390625,51.52099609375
57.0946044921875,-53.0946044921875,25.63525390625,62.36474609375
59.703369140625,-55.703369140625,25.03271484375,62.96728515625
72.9593505859375,-48.9593505859375,28.7587890625,67.2412109375
81.3424072265625,-49.3424072265625,24.908203125,63.091796875
81.681640625,-61.681640625,27.50244140625,64.49755859375
93.1226806640625,-69.1226806640625,30.365234375,65.634765625
102.97802734375,-86.97802734375,25.11279296875,58.88720703125
132.4219970703125,-96.4219970703125,33.27294921875,66.72705078125
156.10595703125,-124.10595703125,16.50390625,51.49609375
183.85986328125,-159.85986328125,24.7705078125,63.2294921875
224.57763671875,-192.57763671875,26.39208984375,69.60791015625
262.276611328125,-234.276611328125,25.9375,74.0625
306.322509765625,-270.322509765625,16.00341796875,67.99658203125
331.846923828125,-319.846923828125,23.00439453125,76.99560546875
362.32763671875,-354.32763671875,23.0126953125,76.9873046875
402.15283203125,-366.15283203125,21.78564453125,74.21435546875
414.958251953125,-390.958251953125,24.865234375,75.134765625
431.580322265625,-399.580322265625,21.72412109375,70.27587890625
441.613037109375,-405.613037109375,5.9423828125,54.0576171875
442.71923828125,-414.71923828125,13.3408203125,62.6591796875
435.950927734375,-427.950927734375,14.017578125,65.982421875
443.39892578125,-423.39892578125,14.291015625,69.708984375
452.3388671875,-412.3388671875,20.5830078125,79.4169921875
447.83837890625,-407.83837890625,-0.69580078125,60.69580078125
423.46044921875,-415.46044921875,12.7578125,75.2421875
411.65185546875,-403.65185546875,13.07421875,74.92578125
411.60693359375,-375.60693359375,4.087890625,63.912109375
388.791259765625,-368.791259765625,7.3349609375,64.6650390625
384.445068359375,-344.445068359375,8.20068359375,63.79931640625
369.283935546875,-333.283935546875,14.21435546875,69.78564453125
349.44873046875,-329.44873046875,7.27978515625,64.72021484375
336.647216796875,-320.647216796875,11.72412109375,72.27587890625
320.4130859375,-316.4130859375,6.0966796875,69.9033203125
324.357421875,-292.357421875,2.86572265625,69.13427734375
302.294677734375,-294.294677734375,4.2109375,71.7890625
292.232421875,-284.232421875,0.01611328125,67.98388671875
280.310302734375,-276.310302734375,12.0390625,79.9609375
274.75341796875,-262.75341796875,8.107421875,75.892578125
265.80859375,-253.80859375,-3.80859375,63.80859375
269.61181640625,-233.61181640625,14.36376953125,81.63623046875
252.04345703125,-236.04345703125,-3.31689453125,63.31689453125
250.724365234375,-222.724365234375,3.14501953125,68.85498046875
239.208251953125,-219.208251953125,17.708984375,82.291015625
239.26171875,-203.26171875,12.3095703125,75.6904296875
231.041015625,-195.041015625,0.8583984375,63.1416015625
209.073486328125,-201.073486328125,17.2265625,78.7734375
212.02001953125,-184.02001953125,13.322265625,74.677734375
204.34814453125,-180.34814453125,7.25244140625,68.74755859375
196.076904296875,-180.076904296875,3.33984375,64.66015625
192.750732421875,-176.750732421875,11.9365234375,72.0634765625
197.658203125,-165.658203125,13.140625,70.859375
186.163330078125,-170.163330078125,14.63427734375,69.36572265625
187.986572265625,-159.986572265625,17.794921875,70.205078125
173.31103515625,-165.31103515625,24.02734375,75.97265625
182.658935546875,-146.658935546875,21.12939453125,74.87060546875
180.604248046875,-140.604248046875,11.45751953125,68.54248046875
177.436279296875,-137.436279296875,3.822265625,64.177734375
164.967529296875,-144.967529296875,5.0517578125,66.9482421875
156.612060546875,-148.612060546875,1.6005859375,62.3994140625
165.69677734375,-133.69677734375,7.35693359375,64.64306640625
155.835693359375,-135.835693359375,11.75830078125,64.24169921875
161.13916015625,-121.13916015625,16.06689453125,63.93310546875
144.1644287109375,-128.1644287109375,17.6533203125,62.3466796875
139.635009765625,-123.635009765625,10.18115234375,53.81884765625
138.07373046875,-118.07373046875,15.6796875,60.3203125
143.540771484375,-107.540771484375,10.47119140625,57.52880859375
133.6234130859375,-113.6234130859375,25.0185546875,74.9814453125
125.697021484375,-117.697021484375,13.76123046875,66.23876953125
139.2884521484375,-99.2884521484375,16.986328125,71.013671875
120.2991943359375,-112.2991943359375,18.8046875,73.1953125
120.9547119140625,-104.9547119140625,23.1484375,76.8515625
125.5615234375,-93.5615234375,23.83154296875,76.16845703125
118.2845458984375,-94.2845458984375,4.63232421875,55.36767578125
117.1195068359375,-89.1195068359375,9.32666015625,58.67333984375
110.0487060546875,-90.0487060546875,7.7294921875,56.2705078125
105.2427978515625,-89.2427978515625,9.685546875,58.314453125
101.085693359375,-89.085693359375,17.126953125,66.873046875
109.957275390625,-77.957275390625,24.12548828125,75.87451171875
101.908935546875,-85.908935546875,22.96435546875,77.03564453125
106.5128173828125,-82.5128173828125,14.087890625,69.912109375
99.0474853515625,-91.0474853515625,7.92431640625,64.07568359375
98.9189453125,-90.9189453125,16.6435546875,71.3564453125
98.010009765625,-90.010009765625,10.017578125,61.982421875
110.7012939453125,-74.7012939453125,13.50341796875,62.49658203125
107.5599365234375,-75.5599365234375,26.55712890625,73.44287109375
102.9500732421875,-78.9500732421875,14.9326171875,61.0673828125
108.8448486328125,-72.8448486328125,6.771484375,53.228515625
100.9119873046875,-80.9119873046875,8.44384765625,55.55615234375
100.7313232421875,-80.7313232421875,20.2294921875,67.7705078125
105.9595947265625,-73.9595947265625,22.1396484375,69.8603515625
108.425048828125,-68.425048828125,21.98388671875,70.01611328125
100.189697265625,-72.189697265625,9.5927734375,58.4072265625
89.58203125,-77.58203125,14.99951171875,65.00048828125
83.146728515625,-79.146728515625,20.37890625,71.62109375
83.4515380859375,-75.4515380859375,11.87353515625,64.12646484375
94.827880859375,-62.827880859375,7.43603515625,60.56396484375
91.1903076171875,-67.1903076171875,12.8720703125,67.1279296875
98.0799560546875,-62.0799560546875,8.0673828125,63.9326171875
86.9212646484375,-74.9212646484375,19.158203125,76.841796875
99.31884765625,-63.31884765625,6.53466796875,65.46533203125
101.188232421875,-61.188232421875,16.61376953125,75.38623046875
88.6494140625,-72.6494140625,1.5546875,58.4453125
99.814697265625,-59.814697265625,23.13427734375,76.86572265625
88.6904296875,-68.6904296875,12.88134765625,63.11865234375
85.279296875,-69.279296875,12.3466796875,59.6533203125
95.7589111328125,-55.7589111328125,13.306640625,58.693359375
88.5303955078125,-60.5303955078125,27.8037109375,72.1962890625
84.0445556640625,-64.0445556640625,22.03466796875,65.96533203125
92.5299072265625,-56.5299072265625,28.16552734375,71.83447265625
85.8201904296875,-65.8201904296875,8.2060546875,51.7939453125
95.40087890625,-59.40087890625,20.0556640625,63.9443359375
80.6549072265625,-76.6549072265625,23.67578125,68.32421875
89.1815185546875,-69.1815185546875,7.228515625,52.771484375
85.02978515625,-73.02978515625,21.03173828125,66.96826171875
80.678466796875,-76.678466796875,11.3486328125,56.6513671875
80.7281494140625,-76.7281494140625,12.1328125,55.8671875
89.4554443359375,-69.4554443359375,20.94970703125,63.05029296875
82.53759765625,-78.53759765625,29.2353515625,70.7646484375
83.1751708984375,-79.1751708984375,8.64892578125,51.35107421875
100.5927734375,-60.5927734375,27.35595703125,72.64404296875
94.580078125,-62.580078125,9.9638671875,58.0361328125
79.695556640625,-71.695556640625,5.169921875,54.830078125
74.9718017578125,-70.9718017578125,5.33251953125,54.66748046875
89.3375244140625,-53.3375244140625,6.25048828125,53.74951171875
83.1275634765625,-59.1275634765625,25.291015625,70.708984375
85.994384765625,-57.994384765625,15.75146484375,60.24853515625
83.2095947265625,-63.2095947265625,15.24853515625,60.75146484375
90.1182861328125,-58.1182861328125,9.84521484375,58.15478515625
80.432373046875,-68.432373046875,8.0068359375,59.9931640625
88.231689453125,-60.231689453125,2.35888671875,57.64111328125
83.75439453125,-63.75439453125,9.43212890625,66.56787109375
79.191650390625,-67.191650390625,1.4169921875,58.5830078125
78.6083984375,-66.6083984375,12.07373046875,67.92626953125
89.98876953125,-53.98876953125,8.84912109375,63.15087890625
81.3228759765625,-61.3228759765625,19.21044921875,72.78955078125
82.6593017578125,-58.6593017578125,4.9814453125,59.0185546875
88.1256103515625,-52.1256103515625,8.46533203125,63.53466796875
75.9100341796875,-63.9100341796875,22.259765625,77.740234375
72.1646728515625,-68.1646728515625,10.80517578125,65.19482421875
82.8525390625,-58.8525390625,10.03125,61.96875
83.6568603515625,-59.6568603515625,7.3623046875,56.6376953125
80.08349609375,-64.08349609375,24.11376953125,71.88623046875
85.7164306640625,-57.7164306640625,24.029296875,71.970703125
88.4505615234375,-52.4505615234375,19.49560546875,68.50439453125
72.5614013671875,-64.5614013671875,25.294921875,74.705078125
86.57861328125,-46.57861328125,8.0205078125,55.9794921875
75.0479736328125,-55.0479736328125,9.58740234375,54.41259765625
80.294677734375,-48.294677734375,25.24072265625,66.75927734375
68.329833984375,-60.329833984375,12.0,52.0
72.9210205078125,-56.9210205078125,9.2666015625,50.7333984375
67.760498046875,-63.760498046875,13.19677734375,58.80322265625
74.6087646484375,-58.6087646484375,14.65869140625,65.34130859375
83.364013671875,-51.364013671875,6.78271484375,61.21728515625
76.06884765625,-60.06884765625,2.39501953125,57.60498046875
74.8668212890625,-62.8668212890625,13.65087890625,66.34912109375
87.888916015625,-51.888916015625,16.01806640625,63.98193359375
83.107666015625,-59.107666015625,16.60302734375,59.39697265625
92.27783203125,-52.27783203125,14.52734375,53.47265625
77.050048828125,-69.050048828125,17.29736328125,54.70263671875
85.1961669921875,-61.1961669921875,18.919921875,57.080078125
78.781005859375,-66.781005859375,29.837890625,70.162109375
88.1209716796875,-56.1209716796875,22.66259765625,65.33740234375
75.5631103515625,-67.5631103515625,19.8388671875,64.1611328125
91.2667236328125,-51.2667236328125,27.46533203125,72.53466796875
79.150634765625,-63.150634765625,13.3408203125,58.6591796875
91.0126953125,-51.0126953125,23.17529296875,68.82470703125
74.7218017578125,-66.7218017578125,16.85302734375,63.14697265625
84.3538818359375,-56.3538818359375,16.50732421875,63.49267578125
88.1920166015625,-52.1920166015625,16.43310546875,63.56689453125
86.577392578125,-54.577392578125,8.8232421875,55.1767578125
89.69580078125,-53.69580078125,23.59033203125,68.40966796875
91.4039306640625,-55.4039306640625,14.37158203125,57.62841796875
79.233642578125,-71.233642578125,26.76171875,69.23828125
96.5657958984375,-56.5657958984375,12.5458984375,55.4541015625
78.9049072265625,-74.9049072265625,21.81884765625,66.18115234375
92.1048583984375,-60.1048583984375,14.94189453125,61.05810546875
76.4385986328125,-72.4385986328125,16.34423828125,63.65576171875
82.4996337890625,-62.4996337890625,10.29931640625,57.70068359375
72.9676513671875,-68.9676513671875,16.8203125,63.1796875
78.33056640625,-62.33056640625,21.70556640625,66.29443359375
80.7008056640625,-60.7008056640625,18.67919921875,61.32080078125
91.8114013671875,-51.8114013671875,27.513671875,68.486328125
93.1759033203125,-53.1759033203125,30.0615234375,69.9384765625
84.3038330078125,-64.3038330078125,22.24609375,61.75390625
78.8502197265625,-70.8502197265625,26.0419921875,65.9580078125
92.64501953125,-56.64501953125,25.48876953125,66.51123046875
91.6612548828125,-55.6612548828125,18.6962890625,61.3037109375
89.986328125,-53.986328125,13.837890625,58.162109375
75.83642578125,-63.83642578125,27.14404296875,72.85595703125
83.564208984375,-51.564208984375,18.853515625,65.146484375
79.6326904296875,-51.6326904296875,13.095703125,58.904296875
76.5084228515625,-52.5084228515625,15.79150390625,60.20849609375
76.5137939453125,-52.5137939453125,22.63525390625,65.36474609375
85.6510009765625,-45.6510009765625,21.2509765625,62.7490234375
87.508544921875,-47.508544921875,19.37939453125,60.62060546875
89.3521728515625,-49.3521728515625,28.986328125,71.013671875
76.42626953125,-64.42626953125,28.197265625,71.802734375
72.3189697265625,-68.3189697265625,27.18408203125,72.81591796875
77.1717529296875,-61.1717529296875,26.10595703125,73.89404296875
83.5841064453125,-51.5841064453125,13.10302734375,62.89697265625
82.26904296875,-50.26904296875,4.32958984375,55.67041015625
67.677734375,-63.677734375,19.93701171875,72.06298828125
75.8206787109375,-55.8206787109375,6.02587890625,57.97412109375
70.3681640625,-62.3681640625,6.56982421875,57.43017578125
80.948974609375,-52.948974609375,23.34814453125,72.65185546875
85.4053955078125,-49.4053955078125,23.99658203125,72.00341796875
77.8387451171875,-57.8387451171875,18.1865234375,65.8134765625
72.4381103515625,-64.4381103515625,25.837890625,74.162109375
87.251708984375,-51.251708984375,17.18115234375,66.81884765625
76.069580078125,-64.069580078125,22.6015625,73.3984375
84.4949951171875,-56.4949951171875,22.37890625,73.62109375
88.1602783203125,-52.1602783203125,4.5244140625,55.4755859375
78.9683837890625,-58.9683837890625,4.783203125,55.216796875
83.2177734375,-51.2177734375,8.82666015625,59.17333984375
67.5040283203125,-63.5040283203125,24.47265625,75.52734375
82.4365234375,-46.4365234375,19.8291015625,72.1708984375
74.30810546875,-54.30810546875,3.27001953125,56.72998046875
68.9285888671875,-60.9285888671875,7.28271484375,60.71728515625
83.7244873046875,-47.7244873046875,10.17138671875,61.82861328125
86.044921875,-46.044921875,21.87060546875,70.12939453125
85.4990234375,-45.4990234375,27.9013671875,72.0986328125
66.1387939453125,-62.1387939453125,25.5400390625,66.4599609375
64.3817138671875,-60.3817138671875,16.12744140625,55.87255859375
76.758056640625,-44.758056640625,13.33154296875,54.66845703125
79.6385498046875,-39.6385498046875,15.314453125,60.685546875
65.12841796875,-53.12841796875,8.69970703125,59.30029296875
75.156494140625,-43.156494140625,8.34228515625,63.65771484375
63.641357421875,-55.641357421875,20.99853515625,79.00146484375
70.5738525390625,-50.5738525390625,17.02587890625,74.97412109375
79.96630859375,-43.96630859375,8.21630859375,63.78369140625
71.7276611328125,-55.7276611328125,13.892578125,66.107421875
79.566162109375,-51.566162109375,11.21875,60.78125
81.0191650390625,-53.0191650390625,7.57373046875,56.42626953125
87.6085205078125,-47.6085205078125,10.81591796875,61.18408203125
69.074951171875,-65.074951171875,5.28466796875,58.71533203125
85.5523681640625,-45.5523681640625,13.583984375,70.416015625
83.5601806640625,-43.5601806640625,14.33837890625,73.66162109375
63.7958984375,-59.7958984375,-0.05029296875,60.05029296875
64.82763671875,-56.82763671875,6.50927734375,65.49072265625
62.8515625,-58.8515625,13.7744140625,70.2255859375
71.619873046875,-51.619873046875,7.2734375,60.7265625
64.56396484375,-60.56396484375,12.46728515625,63.53271484375
75.048583984375,-51.048583984375,10.97314453125,61.02685546875
76.6585693359375,-48.6585693359375,8.73974609375,59.26025390625
77.4228515625,-45.4228515625,6.09765625,57.90234375
69.8443603515625,-49.8443603515625,11.607421875,64.392578125
60.698974609375,-56.698974609375,9.7255859375,62.2744140625
76.6553955078125,-40.6553955078125,20.52734375,71.47265625
77.906982421875,-41.906982421875,5.67724609375,54.32275390625
68.03662109375,-56.03662109375,22.64990234375,69.35009765625
66.227294921875,-62.227294921875,9.05908203125,54.94091796875
85.712890625,-45.712890625,6.8798828125,53.1201171875
84.1710205078125,-48.1710205078125,20.4306640625,67.5693359375
81.8092041015625,-49.8092041015625,18.19189453125,65.80810546875
77.119384765625,-53.119384765625,8.5205078125,55.4794921875
66.5328369140625,-62.5328369140625,25.43359375,70.56640625
82.202880859375,-46.202880859375,22.56591796875,65.43408203125
84.050048828125,-44.050048828125,11.37255859375,52.62744140625
71.95263671875,-55.95263671875,11.40087890625,52.59912109375
77.873291015625,-49.873291015625,10.529296875,53.470703125
65.822509765625,-61.822509765625,23.04931640625,68.95068359375
65.728759765625,-61.728759765625,17.56884765625,66.43115234375
79.41357421875,-47.41357421875,6.74951171875,57.25048828125
72.734375,-52.734375,4.97119140625,55.02880859375
63.7667236328125,-59.7667236328125,8.10009765625,55.89990234375
80.8260498046875,-40.8260498046875,25.544921875,70.455078125
64.2825927734375,-56.2825927734375,12.5888671875,55.4111328125
76.28515625,-44.28515625,10.77783203125,53.22216796875
66.62841796875,-54.62841796875,20.10107421875,63.89892578125
80.850830078125,-40.850830078125,10.91943359375,57.08056640625
70.499755859375,-50.499755859375,11.73876953125,60.26123046875
63.3775634765625,-55.3775634765625,12.97802734375,63.02197265625
63.65673828125,-51.65673828125,6.84423828125,57.15576171875
69.804443359375,-41.804443359375,15.2939453125,64.7060546875
68.370361328125,-40.370361328125,14.09130859375,61.90869140625
59.7235107421875,-47.7235107421875,10.916015625,57.083984375
73.87841796875,-33.87841796875,13.494140625,58.505859375
68.52294921875,-40.52294921875,13.67333984375,58.32666015625
71.22509765625,-39.22509765625,19.44873046875,64.55126953125
71.6849365234375,-39.6849365234375,12.91943359375,59.08056640625
75.8721923828125,-35.8721923828125,22.24072265625,69.75927734375
67.9881591796875,-43.9881591796875,11.60302734375,60.39697265625
70.297119140625,-42.297119140625,11.2314453125,60.7685546875
68.9451904296875,-44.9451904296875,11.35302734375,60.64697265625
77.846435546875,-37.846435546875,16.115234375,63.884765625
64.67919921875,-52.67919921875,21.4560546875,66.5439453125
75.0074462890625,-43.0074462890625,25.0400390625,66.9599609375
62.5,-54.5,16.3251953125,55.6748046875
67.166259765625,-47.166259765625,18.7724609375,57.2275390625
57.4658203125,-53.4658203125,30.09814453125,69.90185546875
68.18798828125,-40.18798828125,22.42138671875,65.57861328125
74.115478515625,-34.115478515625,10.2421875,57.7578125
57.6331787109375,-53.6331787109375,16.2646484375,67.7353515625
68.482177734375,-48.482177734375,3.12109375,56.87890625
73.8050537109375,-49.8050537109375,19.16455078125,72.83544921875
66.50390625,-62.50390625,10.353515625,61.646484375
75.726806640625,-55.726806640625,16.23974609375,63.76025390625
71.2369384765625,-59.2369384765625,14.130859375,57.869140625
67.46142578125,-59.46142578125,27.3134765625,68.6865234375
81.2379150390625,-41.2379150390625,11.3427734375,52.6572265625
65.4237060546875,-53.4237060546875,12.2333984375,55.7666015625
74.566162109375,-42.566162109375,14.44384765625,61.55615234375
66.7576904296875,-50.7576904296875,10.65576171875,61.34423828125
67.671142578125,-51.671142578125,13.4599609375,66.5400390625
64.7513427734375,-56.7513427734375,5.126953125,58.873046875
79.4722900390625,-43.4722900390625,19.5654296875,72.4345703125
75.5718994140625,-47.5718994140625,12.42529296875,63.57470703125
67.159423828125,-55.159423828125,9.28466796875,58.71533203125
74.65185546875,-46.65185546875,17.84130859375,66.15869140625
64.5535888671875,-56.5535888671875,8.00341796875,55.99658203125
65.190673828125,-57.190673828125,21.89013671875,70.10986328125
66.5147705078125,-58.5147705078125,5.7509765625,54.2490234375
74.0809326171875,-54.0809326171875,15.8134765625,64.1865234375
67.2044677734375,-63.2044677734375,14.1904296875,61.8095703125
81.282470703125,-49.282470703125,8.83935546875,55.16064453125
68.1104736328125,-60.1104736328125,25.603515625,70.396484375
68.041259765625,-56.041259765625,26.29443359375,69.70556640625
67.840087890625,-51.840087890625,8.77099609375,51.22900390625
60.2869873046875,-56.2869873046875,8.93994140625,51.06005859375
67.77587890625,-47.77587890625,26.78466796875,69.21533203125
60.1580810546875,-56.1580810546875,12.36962890625,55.63037109375
66.9266357421875,-50.9266357421875,19.91064453125,64.08935546875
69.5877685546875,-49.5877685546875,9.78076171875,54.21923828125
75.96923828125,-43.96923828125,16.38916015625,59.61083984375
78.247314453125,-42.247314453125,27.93408203125,68.06591796875
80.714111328125,-40.714111328125,20.21875,55.78125
73.4759521484375,-49.4759521484375,16.57861328125,47.42138671875
82.330810546875,-42.330810546875,20.10009765625,47.89990234375
72.8834228515625,-52.8834228515625,24.01318359375,51.98681640625
66.776123046875,-58.776123046875,34.12890625,65.87109375
81.8741455078125,-41.8741455078125,31.06640625,68.93359375
80.3145751953125,-40.3145751953125,20.06494140625,63.93505859375
74.449951171875,-42.449951171875,6.43115234375,53.56884765625
62.7247314453125,-50.7247314453125,12.88623046875,59.11376953125
63.5262451171875,-47.5262451171875,29.18994140625,70.81005859375
61.061279296875,-49.061279296875,30.220703125,65.779296875
69.3052978515625,-41.3052978515625,32.5478515625,63.4521484375
64.0362548828125,-48.0362548828125,17.12548828125,46.87451171875
58.951171875,-54.951171875,29.77978515625,62.22021484375
69.80126953125,-45.80126953125,31.22705078125,68.77294921875
64.490234375,-52.490234375,22.6123046875,65.3876953125
75.06005859375,-43.06005859375,26.9794921875,73.0205078125
71.5889892578125,-47.5889892578125,18.86962890625,65.13037109375
64.08642578125,-56.08642578125,18.23291015625,61.76708984375
64.466064453125,-56.466064453125,30.53173828125,69.46826171875
80.6156005859375,-40.6156005859375,24.94482421875,59.05517578125
66.503173828125,-54.503173828125,28.66015625,59.33984375
74.24267578125,-46.24267578125,19.16748046875,48.83251953125
66.0675048828125,-54.0675048828125,24.4228515625,55.5771484375
70.2130126953125,-50.2130126953125,24.84423828125,59.15576171875
74.7679443359375,-46.7679443359375,19.080078125,56.919921875
63.5811767578125,-59.5811767578125,17.70654296875,58.29345703125
64.280029296875,-60.280029296875,21.0185546875,62.9814453125
80.4111328125,-44.4111328125,15.0126953125,56.9873046875
73.65673828125,-49.65673828125,21.52490234375,62.47509765625
62.021728515625,-58.021728515625,26.337890625,65.662109375
67.8831787109375,-47.8831787109375,25.1865234375,62.8134765625
71.8580322265625,-39.8580322265625,13.76220703125,50.23779296875
74.5538330078125,-34.5538330078125,17.79345703125,54.20654296875
70.2982177734375,-38.2982177734375,31.21630859375,68.78369140625
58.9781494140625,-50.9781494140625,20.275390625,59.724609375
62.0640869140625,-50.0640869140625,9.45263671875,50.54736328125
64.8326416015625,-48.8326416015625,25.177734375,66.822265625
70.686279296875,-42.686279296875,21.5537109375,62.4462890625
73.415283203125,-37.415283203125,26.298828125,65.701171875
63.2794189453125,-43.2794189453125,22.97802734375,61.02197265625
64.887939453125,-36.887939453125,27.27197265625,64.72802734375
56.9642333984375,-40.9642333984375,27.140625,64.859375
54.0823974609375,-42.0823974609375,20.72216796875,59.27783203125
54.4718017578125,-42.4718017578125,18.123046875,57.876953125
61.9466552734375,-37.9466552734375,11.30517578125,52.69482421875
67.9892578125,-35.9892578125,12.19189453125,55.80810546875
57.9727783203125,-49.9727783203125,6.884765625,53.115234375
57.4163818359375,-53.4163818359375,11.76904296875,60.23095703125
76.1605224609375,-36.1605224609375,17.37109375,66.62890625
58.379150390625,-54.379150390625,16.02294921875,63.97705078125
58.41943359375,-54.41943359375,7.58544921875,52.41455078125
72.571533203125,-40.571533203125,19.421875,60.578125
72.9024658203125,-40.9024658203125,22.69189453125,61.30810546875
71.2801513671875,-43.2801513671875,30.78369140625,69.21630859375
77.5501708984375,-37.5501708984375,21.66259765625,62.33740234375
65.6966552734375,-49.6966552734375,9.93310546875,54.06689453125
73.8577880859375,-41.8577880859375,16.5615234375,63.4384765625
64.1905517578125,-52.1905517578125,8.38671875,55.61328125
60.732421875,-56.732421875,13.66845703125,58.33154296875
73.3629150390625,-45.3629150390625,15.9267578125,56.0732421875
61.8822021484375,-57.8822021484375,24.2138671875,59.7861328125
74.1253662109375,-46.1253662109375,29.6484375,62.3515625
72.0281982421875,-48.0281982421875,31.85546875,64.14453125
63.6328125,-55.6328125,15.11279296875,48.88720703125
69.044189453125,-49.044189453125,26.10986328125,61.89013671875
62.3807373046875,-54.3807373046875,11.5498046875,48.4501953125
63.7353515625,-51.7353515625,13.74951171875,50.25048828125
59.183837890625,-55.183837890625,16.50537109375,51.49462890625
60.8262939453125,-52.8262939453125,17.19384765625,50.80615234375
72.8275146484375,-40.8275146484375,17.1396484375,50.8603515625
73.3896484375,-41.3896484375,21.99560546875,58.00439453125
74.6483154296875,-42.6483154296875,17.951171875,58.048828125
68.5177001953125,-52.5177001953125,27.65771484375,72.34228515625
76.5743408203125,-48.5743408203125,9.90966796875,58.09033203125
66.1243896484375,-62.1243896484375,13.29443359375,62.70556640625
72.5030517578125,-56.5030517578125,17.94189453125,66.05810546875
75.494873046875,-51.494873046875,15.48828125,60.51171875
77.59521484375,-45.59521484375,29.25732421875,70.74267578125
67.9075927734375,-51.9075927734375,28.54443359375,67.45556640625
79.6380615234375,-39.6380615234375,16.89892578125,55.10107421875
65.420654296875,-57.420654296875,18.2861328125,57.7138671875
66.894775390625,-62.894775390625,23.03125,64.96875
78.8212890625,-58.8212890625,17.6552734375,62.3447265625
89.7047119140625,-53.7047119140625,6.65380859375,53.34619140625
88.5360107421875,-56.5360107421875,24.31640625,71.68359375
85.236572265625,-57.236572265625,26.66796875,73.33203125
70.5926513671875,-66.5926513671875,23.51806640625,68.48193359375
83.794189453125,-47.794189453125,28.56884765625,71.43115234375
67.84765625,-59.84765625,13.47705078125,54.52294921875
73.1688232421875,-53.1688232421875,11.9169921875,52.0830078125
67.5224609375,-59.5224609375,27.62841796875,68.37158203125
82.2889404296875,-46.2889404296875,22.53271484375,65.46728515625
78.8572998046875,-50.8572998046875,20.83935546875,67.16064453125
82.911376953125,-46.911376953125,21.0859375,70.9140625
84.4798583984375,-44.4798583984375,15.94970703125,68.05029296875
69.782470703125,-57.782470703125,17.93994140625,70.06005859375
71.020751953125,-55.020751953125,17.1103515625,66.8896484375
66.25634765625,-58.25634765625,22.98388671875,69.01611328125
81.4140625,-41.4140625,28.79052734375,71.20947265625
78.413818359375,-42.413818359375,27.86279296875,68.13720703125
77.3134765625,-41.3134765625,19.91845703125,60.08154296875
76.3739013671875,-40.3739013671875,15.13525390625,56.86474609375
77.9439697265625,-37.9439697265625,23.986328125,68.013671875
68.2215576171875,-48.2215576171875,24.97900390625,71.02099609375
71.044921875,-47.044921875,10.43896484375,57.56103515625
63.882080078125,-55.882080078125,26.435546875,73.564453125
72.072265625,-48.072265625,24.7734375,71.2265625
65.185546875,-53.185546875,21.1318359375,66.8681640625
69.2779541015625,-45.2779541015625,11.21630859375,56.78369140625
70.876708984375,-38.876708984375,14.90478515625,61.09521484375
54.72216796875,-50.72216796875,18.326171875,65.673828125
61.441650390625,-41.441650390625,5.76708984375,54.23291015625
53.3173828125,-49.3173828125,19.48583984375,68.51416015625
68.2265625,-36.2265625,13.509765625,62.490234375
55.72265625,-51.72265625,7.61572265625,56.38427734375
67.21142578125,-43.21142578125,7.49560546875,56.50439453125
58.1739501953125,-54.1739501953125,25.00439453125,74.99560546875
66.3489990234375,-46.3489990234375,24.3251953125,75.6748046875
59.7935791015625,-51.7935791015625,3.8935546875,56.1064453125
56.7916259765625,-52.7916259765625,12.134765625,63.865234375
63.6893310546875,-43.6893310546875,25.1083984375,74.8916015625
66.727783203125,-38.727783203125,22.4091796875,69.5908203125
65.9456787109375,-37.9456787109375,13.39892578125,58.60107421875
69.1781005859375,-33.1781005859375,19.6416015625,64.3583984375
54.1715087890625,-46.1715087890625,17.22265625,62.77734375
68.7738037109375,-28.7738037109375,18.7060546875,65.2939453125
51.0775146484375,-43.0775146484375,18.7197265625,65.2802734375
59.4193115234375,-31.4193115234375,27.5068359375,72.4931640625
56.2410888671875,-32.2410888671875,14.71826171875,57.28173828125
59.9146728515625,-27.9146728515625,13.60888671875,54.39111328125
50.59716796875,-38.59716796875,25.525390625,66.474609375
52.154052734375,-40.154052734375,22.32470703125,65.67529296875
66.1478271484375,-30.1478271484375,16.47509765625,63.52490234375
59.9122314453125,-39.9122314453125,14.783203125,65.216796875
62.762939453125,-38.762939453125,3.93115234375,56.06884765625
58.2689208984375,-42.2689208984375,18.1591796875,69.8408203125
50.451416015625,-46.451416015625,15.22216796875,64.77783203125
63.803466796875,-27.803466796875,22.60400390625,69.39599609375
49.11767578125,-37.11767578125,25.74755859375,70.25244140625
55.189697265625,-27.189697265625,14.236328125,57.763671875
44.502197265625,-36.502197265625,25.92431640625,70.07568359375
47.01025390625,-35.01025390625,24.99462890625,71.00537109375
60.1414794921875,-24.1414794921875,9.9228515625,58.0771484375
55.055908203125,-31.055908203125,7.33837890625,56.66162109375
63.0574951171875,-23.0574951171875,7.72412109375,56.27587890625
43.9500732421875,-39.9500732421875,25.166015625,70.833984375
54.131591796875,-26.131591796875,9.22412109375,50.77587890625
52.366455078125,-24.366455078125,13.0947265625,50.9052734375
39.3621826171875,-35.3621826171875,23.9248046875,60.0751953125
57.3818359375,-17.3818359375,23.20703125,60.79296875
48.108642578125,-28.108642578125,11.0126953125,52.9873046875
46.8330078125,-30.8330078125,13.99755859375,62.00244140625
50.8470458984375,-26.8470458984375,21.10791015625,74.89208984375
49.8209228515625,-25.8209228515625,13.15478515625,70.84521484375
49.939208984375,-21.939208984375,10.49365234375,69.50634765625
45.752197265625,-21.752197265625,4.97998046875,63.02001953125
43.8739013671875,-19.8739013671875,18.1728515625,73.8271484375
36.7508544921875,-24.7508544921875,23.5888671875,76.4111328125
36.6005859375,-24.6005859375,16.8408203125,67.1591796875
35.4617919921875,-27.4617919921875,21.68310546875,70.31689453125
49.2022705078125,-17.2022705078125,7.9892578125,56.0107421875
41.4774169921875,-29.4774169921875,21.736328125,70.263671875
55.7308349609375,-19.7308349609375,5.00244140625,54.99755859375
43.3182373046875,-35.3182373046875,8.01025390625,59.98974609375
55.7496337890625,-23.7496337890625,9.091796875,62.908203125
46.927001953125,-30.927001953125,20.63525390625,75.36474609375
39.2498779296875,-35.2498779296875,12.896484375,67.103515625
49.4976806640625,-21.4976806640625,5.85400390625,58.14599609375
36.495361328125,-32.495361328125,25.20263671875,74.79736328125
50.734375,-18.734375,10.4716796875,57.5283203125
42.162841796875,-30.162841796875,15.2275390625,60.7724609375
40.237060546875,-36.237060546875,23.24169921875,68.75830078125
42.1734619140625,-38.1734619140625,24.56396484375,71.43603515625
61.2568359375,-21.2568359375,11.53955078125,60.46044921875
59.0936279296875,-23.0936279296875,22.65283203125,73.34716796875
43.7547607421875,-35.7547607421875,22.29296875,73.70703125
49.755615234375,-25.755615234375,4.51318359375,55.48681640625
49.88427734375,-21.88427734375,21.00927734375,70.99072265625
40.91455078125,-28.91455078125,9.3154296875,58.6845703125
47.3238525390625,-23.3238525390625,23.1142578125,72.8857421875
47.1265869140625,-27.1265869140625,6.4111328125,57.5888671875
41.873779296875,-37.873779296875,19.5302734375,72.4697265625
44.79736328125,-40.79736328125,6.94140625,61.05859375
57.0572509765625,-33.0572509765625,7.0791015625,60.9208984375
50.0615234375,-42.0615234375,6.14013671875,57.85986328125
49.7718505859375,-41.7718505859375,23.9150390625,72.0849609375
50.8511962890625,-38.8511962890625,13.70556640625,58.29443359375
54.5361328125,-34.5361328125,24.48095703125,67.51904296875
58.2041015625,-34.2041015625,27.25732421875,72.74267578125
54.794189453125,-46.794189453125,17.55615234375,70.44384765625
72.3218994140625,-44.3218994140625,1.716796875,66.283203125
75.756591796875,-59.756591796875,-7.1513671875,71.1513671875
95.36669921875,-59.36669921875,2.45263671875,93.54736328125
87.3704833984375,-83.3704833984375,-10.173828125,90.173828125
110.568603515625,-70.568603515625,-20.39111328125,84.39111328125
102.6727294921875,-82.6727294921875,-6.3603515625,98.3603515625
108.2303466796875,-76.2303466796875,-20.84521484375,80.84521484375
100.27734375,-80.27734375,-10.84326171875,86.84326171875
93.8892822265625,-81.8892822265625,0.75,95.25
99.8189697265625,-71.8189697265625,-12.63720703125,80.63720703125
100.33935546875,-68.33935546875,-7.14404296875,87.14404296875
89.3087158203125,-77.3087158203125,-14.41943359375,82.41943359375
84.397705078125,-80.397705078125,-11.7431640625,87.7431640625
83.3648681640625,-79.3648681640625,-4.31787109375,96.31787109375
96.2601318359375,-64.2601318359375,-9.7255859375,89.7255859375
85.416748046875,-73.416748046875,-12.17626953125,84.17626953125
85.220458984375,-73.220458984375,-10.4541015625,82.4541015625
83.805908203125,-75.805908203125,-1.5205078125,89.5205078125
84.937744140625,-76.937744140625,3.96240234375,96.03759765625
84.168701171875,-80.168701171875,-16.0244140625,80.0244140625
91.149658203125,-75.149658203125,-14.8115234375,86.8115234375
97.831298828125,-69.831298828125,-11.28955078125,95.28955078125
100.404541015625,-68.404541015625,-8.38232421875,100.38232421875
87.05517578125,-83.05517578125,-7.5263671875,99.5263671875
93.73974609375,-77.73974609375,-14.9794921875,86.9794921875
104.173583984375,-68.173583984375,-13.75927734375,81.75927734375
104.0469970703125,-68.0469970703125,-13.2119140625,77.2119140625
87.28076171875,-83.28076171875,-0.40869140625,88.40869140625
100.09765625,-68.09765625,-7.623046875,83.623046875
92.88330078125,-72.88330078125,-6.2109375,90.2109375
95.9781494140625,-67.9781494140625,-14.9765625,86.9765625
95.566162109375,-67.566162109375,-20.77734375,84.77734375
95.718505859375,-67.718505859375,-23.07861328125,83.07861328125
96.490966796875,-68.490966796875,-6.126953125,98.126953125
95.940673828125,-71.940673828125,-8.68359375,92.68359375
90.0064697265625,-82.0064697265625,-19.56787109375,79.56787109375
106.3502197265625,-70.3502197265625,-15.267578125,83.267578125
92.330078125,-88.330078125,-9.791015625,89.791015625
105.2181396484375,-77.2181396484375,-2.80126953125,98.80126953125
108.584716796875,-72.584716796875,-13.82958984375,89.82958984375
106.601806640625,-70.601806640625,-14.4853515625,90.4853515625
94.04931640625,-78.04931640625,-20.5927734375,84.5927734375
103.96435546875,-63.96435546875,-10.20556640625,94.20556640625
95.1121826171875,-71.1121826171875,-19.544921875,83.544921875
93.593505859375,-73.593505859375,-0.82958984375,100.82958984375
92.8065185546875,-76.8065185546875,-6.2197265625,94.2197265625
91.8128662109375,-79.8128662109375,-5.80517578125,93.80517578125
93.8760986328125,-77.8760986328125,-9.65869140625,89.65869140625
102.8597412109375,-66.8597412109375,-19.83203125,79.83203125
91.27197265625,-75.27197265625,-10.32763671875,90.32763671875
99.9423828125,-63.9423828125,-13.0546875,89.0546875
91.52294921875,-71.52294921875,-15.86669921875,87.86669921875
92.103271484375,-72.103271484375,-6.61669921875,98.61669921875
103.1822509765625,-63.1822509765625,-13.2119140625,93.2119140625
92.022705078125,-76.022705078125,-19.60888671875,87.60888671875
94.1676025390625,-74.1676025390625,-11.82470703125,95.82470703125
87.75048828125,-79.75048828125,-9.87353515625,97.87353515625
89.37451171875,-77.37451171875,-13.73828125,93.73828125
103.6678466796875,-63.6678466796875,-11.376953125,95.376953125
90.8094482421875,-78.8094482421875,-14.76611328125,90.76611328125
88.3602294921875,-84.3602294921875,-11.96044921875,91.96044921875
99.5048828125,-75.5048828125,-5.04736328125,97.04736328125
99.5596923828125,-75.5596923828125,-18.083984375,82.083984375
94.425537109375,-78.425537109375,0.935546875,99.064453125
94.70361328125,-74.70361328125,-15.98095703125,79.98095703125
95.3834228515625,-71.3834228515625,-6.912109375,86.912109375
97.322265625,-69.322265625,-6.0712890625,86.0712890625
96.809814453125,-72.809814453125,-15.74169921875,75.74169921875
93.4781494140625,-81.4781494140625,3.85009765625,96.14990234375
106.5440673828125,-74.5440673828125,-5.3359375,89.3359375
109.1927490234375,-77.1927490234375,-11.0859375,87.0859375
106.8575439453125,-82.8575439453125,-12.9501953125,88.9501953125
109.294677734375,-81.294677734375,-4.4013671875,100.4013671875
114.5272216796875,-74.5272216796875,-21.06787109375,85.06787109375
112.7572021484375,-72.7572021484375,-14.91064453125,90.91064453125
94.282958984375,-86.282958984375,-18.18798828125,86.18798828125
101.4571533203125,-73.4571533203125,-5.2490234375,97.2490234375
104.699951171875,-64.699951171875,-14.34228515625,86.34228515625
94.5242919921875,-70.5242919921875,-1.55224609375,97.55224609375
87.457763671875,-75.457763671875,-2.92724609375,94.92724609375
85.8116455078125,-77.8116455078125,1.4453125,98.5546875
93.4432373046875,-73.4432373046875,-6.5380859375,90.5380859375
103.7080078125,-67.7080078125,-8.8720703125,88.8720703125
103.7266845703125,-71.7266845703125,-11.36328125,87.36328125
106.8330078125,-70.8330078125,-13.6875,85.6875
100.9041748046875,-76.9041748046875,-19.5712890625,79.5712890625
108.365234375,-68.365234375,1.0146484375,98.9853515625
99.8480224609375,-75.8480224609375,-10.13671875,86.13671875
103.7508544921875,-71.7508544921875,-15.34912109375,79.34912109375
107.979736328125,-67.979736328125,-2.87060546875,90.87060546875
106.0487060546875,-70.0487060546875,-12.779296875,80.779296875
101.4332275390625,-73.4332275390625,-9.02734375,85.02734375
103.943359375,-67.943359375,-17.52294921875,77.52294921875
87.8717041015625,-79.8717041015625,-6.18994140625,90.18994140625
83.845458984375,-79.845458984375,-12.9443359375,84.9443359375
94.5181884765625,-66.5181884765625,-3.65478515625,95.65478515625
92.2996826171875,-68.2996826171875,-8.14111328125,92.14111328125
91.240234375,-71.240234375,-6.23583984375,94.23583984375
93.0489501953125,-73.0489501953125,-19.88916015625,79.88916015625
103.1685791015625,-67.1685791015625,-13.263671875,85.263671875
102.8958740234375,-70.8958740234375,-0.69921875,96.69921875
101.5758056640625,-73.5758056640625,-4.59228515625,92.59228515625
96.8544921875,-76.8544921875,-11.17041015625,87.17041015625
96.8846435546875,-72.8846435546875,-4.33447265625,96.33447265625
84.310302734375,-80.310302734375,-13.61572265625,89.61572265625
88.0040283203125,-72.0040283203125,-16.3408203125,88.3408203125
82.6717529296875,-74.6717529296875,-13.9208984375,89.9208984375
88.5662841796875,-68.5662841796875,-14.15625,86.15625
89.4532470703125,-69.4532470703125,-3.39013671875,91.39013671875
98.834716796875,-62.834716796875,3.5888671875,92.4111328125
94.2508544921875,-70.2508544921875,7.8388671875,92.1611328125
99.4727783203125,-67.4727783203125,-7.39111328125,75.39111328125
102.48388671875,-66.48388671875,-8.38232421875,76.38232421875
91.3135986328125,-79.3135986328125,-0.83935546875,88.83935546875
101.871337890625,-69.871337890625,-1.9609375,93.9609375
103.9090576171875,-67.9090576171875,-20.69873046875,80.69873046875
97.1597900390625,-73.1597900390625,-10.15478515625,94.15478515625
99.5556640625,-67.5556640625,-5.9677734375,97.9677734375
83.35400390625,-79.35400390625,-2.45166015625,98.45166015625
97.0638427734375,-61.0638427734375,-16.45751953125,80.45751953125
95.2313232421875,-59.2313232421875,-10.9794921875,82.9794921875
92.220458984375,-60.220458984375,3.29541015625,96.70458984375
90.0966796875,-62.0966796875,-9.78369140625,85.78369140625
84.648681640625,-68.648681640625,-13.79541015625,85.79541015625
91.504638671875,-63.504638671875,-11.97216796875,91.97216796875
90.2962646484375,-66.2962646484375,-23.537109375,83.537109375
80.77685546875,-76.77685546875,-8.0400390625,100.0400390625
82.8563232421875,-74.8563232421875,-17.5068359375,89.5068359375
88.535888671875,-68.535888671875,-18.3984375,86.3984375
85.8135986328125,-69.8135986328125,-11.34912109375,91.34912109375
90.649658203125,-62.649658203125,-14.8671875,86.8671875
93.01513671875,-57.01513671875,-19.109375,83.109375
85.00146484375,-61.00146484375,-11.88134765625,91.88134765625
86.898193359375,-54.898193359375,-4.80859375,100.80859375
85.14404296875,-53.14404296875,-13.56787109375,93.56787109375
88.138916015625,-48.138916015625,-4.021484375,104.021484375
80.025634765625,-56.025634765625,-6.21533203125,102.21533203125
82.611572265625,-54.611572265625,-14.2734375,94.2734375
81.489501953125,-57.489501953125,-20.28759765625,88.28759765625
78.2861328125,-62.2861328125,-8.22705078125,100.22705078125
74.8421630859375,-66.8421630859375,-9.9921875,97.9921875
77.21142578125,-65.21142578125,-3.4794921875,103.4794921875
83.5244140625,-59.5244140625,-8.6552734375,96.6552734375
83.8341064453125,-59.8341064453125,-11.62939453125,91.62939453125
90.0460205078125,-54.0460205078125,-4.6572265625,96.6572265625
91.962158203125,-51.962158203125,-20.05810546875,80.05810546875
73.3944091796875,-69.3944091796875,-12.06201171875,88.06201171875
78.2923583984375,-62.2923583984375,-8.6328125,92.6328125
74.7999267578125,-62.7999267578125,-7.41552734375,95.41552734375
79.217041015625,-55.217041015625,-19.94140625,83.94140625
79.8909912109375,-51.8909912109375,-3.9375,99.9375
81.0914306640625,-49.0914306640625,-13.51611328125,89.51611328125
76.89306640625,-52.89306640625,-17.0771484375,85.0771484375
71.1060791015625,-59.1060791015625,-21.0048828125,81.0048828125
69.321533203125,-61.321533203125,-3.380859375,99.380859375
71.119873046875,-59.119873046875,-5.912109375,97.912109375
66.3599853515625,-62.3599853515625,-20.11962890625,84.11962890625
71.32763671875,-55.32763671875,-21.673828125,81.673828125
74.5830078125,-50.5830078125,-14.63720703125,86.63720703125
68.5635986328125,-56.5635986328125,-3.40869140625,95.40869140625
75.235595703125,-51.235595703125,-2.4560546875,94.4560546875
72.065185546875,-56.065185546875,-10.03515625,86.03515625
72.32763671875,-56.32763671875,-18.09033203125,78.09033203125
79.554931640625,-47.554931640625,-6.36865234375,90.36865234375
79.8624267578125,-43.8624267578125,-16.65673828125,80.65673828125
71.9503173828125,-47.9503173828125,-18.91357421875,78.91357421875
78.7489013671875,-38.7489013671875,-3.1845703125,95.1845703125
78.8883056640625,-38.8883056640625,-5.42236328125,93.42236328125
80.3463134765625,-40.3463134765625,-7.4111328125,91.4111328125
72.4747314453125,-52.4747314453125,-12.861328125,84.861328125
82.371826171875,-46.371826171875,-13.640625,81.640625
81.3341064453125,-49.3341064453125,-9.923828125,81.923828125
73.15673828125,-57.15673828125,-2.16552734375,86.16552734375
80.1588134765625,-48.1588134765625,-0.861328125,84.861328125
76.9705810546875,-48.9705810546875,-6.24658203125,78.24658203125
64.2010498046875,-60.2010498046875,3.845703125,88.154296875
80.1510009765625,-44.1510009765625,7.88671875,92.11328125
70.7056884765625,-54.7056884765625,8.302734375,91.697265625
83.4327392578125,-43.4327392578125,-8.818359375,72.818359375
81.8226318359375,-45.8226318359375,2.1904296875,81.8095703125
83.5374755859375,-43.5374755859375,-3.208984375,75.208984375
64.5592041015625,-60.5592041015625,-9.42822265625,69.42822265625
69.1910400390625,-53.1910400390625,3.5556640625,84.4443359375
67.922607421875,-51.922607421875,-1.78515625,81.78515625
65.2259521484375,-53.2259521484375,-4.75146484375,80.75146484375
77.3536376953125,-41.3536376953125,-12.79345703125,72.79345703125
78.1942138671875,-42.1942138671875,-1.80615234375,81.80615234375
73.2642822265625,-49.2642822265625,-0.17529296875,80.17529296875
67.858154296875,-55.858154296875,5.41455078125,82.58544921875
67.3355712890625,-55.3355712890625,-5.697265625,69.697265625
69.4287109375,-49.4287109375,10.11181640625,85.88818359375
70.4442138671875,-42.4442138671875,4.8828125,83.1171875
63.2313232421875,-43.2313232421875,7.0068359375,88.9931640625
66.874267578125,-34.874267578125,5.0849609375,90.9150390625
54.2222900390625,-46.2222900390625,3.71484375,92.28515625
53.5242919921875,-49.5242919921875,-14.68603515625,74.68603515625
68.34375,-40.34375,-10.08056640625,78.08056640625
71.7733154296875,-43.7733154296875,-6.85595703125,78.85595703125
80.7808837890625,-40.7808837890625,2.3134765625,85.6865234375
72.548828125,-52.548828125,2.75927734375,85.24072265625
72.7105712890625,-52.7105712890625,-5.86083984375,77.86083984375
69.4188232421875,-53.4188232421875,-7.4248046875,79.4248046875
65.2366943359375,-53.2366943359375,-5.380859375,85.380859375
62.9017333984375,-50.9017333984375,-6.98974609375,86.98974609375
63.061767578125,-47.061767578125,-3.6533203125,91.6533203125
70.0762939453125,-38.0762939453125,2.859375,97.140625
73.9473876953125,-33.9473876953125,-5.62451171875,85.62451171875
74.4080810546875,-34.4080810546875,-7.57470703125,79.57470703125
65.13330078125,-45.13330078125,6.3876953125,89.6123046875
65.9281005859375,-45.9281005859375,3.62353515625,84.37646484375
68.732177734375,-44.732177734375,-10.37939453125,70.37939453125
59.460205078125,-55.460205078125,-7.814453125,75.814453125
67.842529296875,-47.842529296875,-10.41064453125,78.41064453125
73.4605712890625,-41.4605712890625,2.5498046875,97.4501953125
66.0023193359375,-46.0023193359375,-13.9853515625,85.9853515625
55.581298828125,-51.581298828125,-11.2001953125,91.2001953125
66.85546875,-34.85546875,-2.767578125,98.767578125
66.8133544921875,-30.8133544921875,-16.9619140625,80.9619140625
68.2938232421875,-28.2938232421875,-0.525390625,92.525390625
61.5296630859375,-37.5296630859375,-2.33251953125,86.33251953125
63.9693603515625,-39.9693603515625,-0.98095703125,84.98095703125
68.5006103515625,-40.5006103515625,-8.61181640625,76.61181640625
69.97509765625,-41.97509765625,5.0400390625,90.9599609375
69.779296875,-41.779296875,-1.6171875,85.6171875
64.1383056640625,-44.1383056640625,-0.2666015625,88.2666015625
67.98291015625,-35.98291015625,1.21533203125,90.78466796875
56.443359375,-44.443359375,-5.15966796875,85.15966796875
70.2593994140625,-30.2593994140625,-11.39794921875,79.39794921875
53.435546875,-49.435546875,-3.44580078125,87.44580078125
73.32373046875,-33.32373046875,2.798828125,93.201171875
75.068359375,-35.068359375,-2.58740234375,86.58740234375
64.09619140625,-48.09619140625,-13.63916015625,73.63916015625
70.37890625,-42.37890625,-10.55224609375,74.55224609375
58.326904296875,-54.326904296875,2.35205078125,85.64794921875
66.445068359375,-46.445068359375,2.7802734375,85.2197265625
66.990478515625,-46.990478515625,8.578125,91.421875
77.849609375,-37.849609375,-8.18994140625,76.18994140625
62.6807861328125,-54.6807861328125,6.744140625,93.255859375
63.1724853515625,-55.1724853515625,-10.2587890625,78.2587890625
65.2325439453125,-53.2325439453125,5.1416015625,94.8583984375
79.0169677734375,-39.0169677734375,-12.876953125,76.876953125
64.8167724609375,-52.8167724609375,1.626953125,90.373046875
62.8912353515625,-54.8912353515625,-11.611328125,75.611328125
79.3375244140625,-39.3375244140625,-10.943359375,74.943359375
74.0552978515625,-46.0552978515625,-6.66259765625,78.66259765625
62.81591796875,-58.81591796875,5.08251953125,90.91748046875
79.3568115234375,-43.3568115234375,-13.63525390625,73.63525390625
69.404052734375,-53.404052734375,-0.4658203125,88.4658203125
70.6231689453125,-50.6231689453125,1.24755859375,90.75244140625
70.6092529296875,-46.6092529296875,-7.720703125,79.720703125
59.0484619140625,-51.0484619140625,-0.7890625,80.7890625
58.010986328125,-42.010986328125,-3.96630859375,67.96630859375
56.1514892578125,-32.1514892578125,9.94970703125,70.05029296875
56.5733642578125,-20.5733642578125,15.55029296875,64.44970703125
42.3720703125,-26.3720703125,19.3447265625,60.6552734375
44.13037109375,-20.13037109375,24.4248046875,63.5751953125
47.7005615234375,-15.7005615234375,24.89697265625,67.10302734375
48.414794921875,-16.414794921875,7.87109375,56.12890625
37.5208740234375,-29.5208740234375,8.94921875,63.05078125
52.5498046875,-16.5498046875,21.47412109375,78.52587890625
37.4102783203125,-33.4102783203125,21.95556640625,78.04443359375
48.229736328125,-24.229736328125,19.9140625,72.0859375
41.1282958984375,-33.1282958984375,16.2509765625,63.7490234375
58.084716796875,-18.084716796875,9.865234375,54.134765625
52.960693359375,-24.960693359375,22.201171875,65.798828125
51.603271484375,-27.603271484375,25.412109375,70.587890625
55.9189453125,-23.9189453125,24.10888671875,71.89111328125
45.8914794921875,-33.8914794921875,10.89990234375,61.10009765625
43.5809326171875,-35.5809326171875,10.04541015625,61.95458984375
51.1549072265625,-27.1549072265625,13.3759765625,66.6240234375
52.8997802734375,-24.8997802734375,16.53515625,71.46484375
49.116943359375,-29.116943359375,11.30859375,68.69140625
49.9410400390625,-29.9410400390625,7.83154296875,68.16845703125
61.2103271484375,-21.2103271484375,8.55517578125,71.44482421875
62.5126953125,-22.5126953125,13.9736328125,78.0263671875
61.3768310546875,-25.3768310546875,2.380859375,65.619140625
51.4754638671875,-35.4754638671875,3.671875,64.328125
54.7203369140625,-30.7203369140625,17.39404296875,74.60595703125
51.23046875,-31.23046875,18.9091796875,73.0908203125
49.2523193359375,-29.2523193359375,3.6875,56.3125
53.0887451171875,-21.0887451171875,13.546875,66.453125
47.0390625,-23.0390625,14.759765625,69.240234375
49.349609375,-17.349609375,17.8603515625,74.1396484375
48.205322265625,-16.205322265625,19.30810546875,76.69189453125
41.75,-21.75,19.19775390625,76.80224609375
46.0927734375,-18.0927734375,1.201171875,58.798828125
49.2252197265625,-17.2252197265625,2.8486328125,61.1513671875
48.894775390625,-20.894775390625,7.888671875,68.111328125
56.571044921875,-16.571044921875,10.5673828125,73.4326171875
41.5989990234375,-33.5989990234375,1.49951171875,66.50048828125
55.484130859375,-19.484130859375,13.27392578125,78.72607421875
44.1514892578125,-28.1514892578125,16.0224609375,79.9775390625
40.022216796875,-28.022216796875,5.29052734375,66.70947265625
45.8929443359375,-17.8929443359375,4.244140625,63.755859375
42.6253662109375,-18.6253662109375,16.17626953125,75.82373046875
34.75048828125,-26.75048828125,14.95458984375,77.04541015625
42.169189453125,-22.169189453125,11.1533203125,76.8466796875
46.1611328125,-22.1611328125,-2.22509765625,66.22509765625
45.73974609375,-25.73974609375,13.69384765625,82.30615234375
56.177978515625,-16.177978515625,13.20849609375,78.79150390625
51.4039306640625,-19.4039306640625,17.88525390625,78.11474609375
36.0380859375,-32.0380859375,22.79345703125,77.20654296875
43.032958984375,-23.032958984375,10.9677734375,61.0322265625
39.0872802734375,-27.0872802734375,25.85888671875,74.14111328125
50.1673583984375,-18.1673583984375,5.5556640625,54.4443359375
47.4779052734375,-23.4779052734375,20.634765625,71.365234375
39.9100341796875,-31.9100341796875,19.79345703125,72.20654296875
48.71240234375,-20.71240234375,17.494140625,70.505859375
51.944580078125,-11.944580078125,11.78662109375,64.21337890625
30.471435546875,-26.471435546875,16.3935546875,67.6064453125
43.5283203125,-7.5283203125,20.916015625,71.083984375
44.1356201171875,-4.1356201171875,13.060546875,62.939453125
42.6317138671875,-6.6317138671875,8.771484375,59.228515625
28.51904296875,-24.51904296875,12.185546875,63.814453125
46.6622314453125,-10.6622314453125,3.529296875,56.470703125
47.7589111328125,-11.7589111328125,12.97314453125,67.02685546875
38.91845703125,-18.91845703125,6.578125,61.421875
36.1104736328125,-16.1104736328125,14.29052734375,69.70947265625
36.24560546875,-8.24560546875,14.05419921875,69.94580078125
32.79638671875,-4.79638671875,9.87890625,66.12109375
37.1295166015625,2.8704833984375,13.845703125,70.154296875
19.882080078125,-15.882080078125,10.04248046875,65.95751953125
34.689453125,-6.689453125,22.5009765625,77.4990234375
40.3677978515625,-8.3677978515625,5.17333984375,58.82666015625
31.4786376953125,-23.4786376953125,17.9287109375,70.0712890625
32.9532470703125,-24.9532470703125,20.5771484375,71.4228515625
46.47802734375,-10.47802734375,10.9296875,61.0703125
34.4696044921875,-18.4696044921875,20.916015625,71.083984375
43.7750244140625,-3.7750244140625,18.6611328125,69.3388671875
27.311767578125,-15.311767578125,22.4501953125,73.5498046875
23.7969970703125,-15.7969970703125,20.59716796875,71.40283203125
23.5908203125,-15.5908203125,21.212890625,70.787109375
34.6240234375,-6.6240234375,18.10498046875,65.89501953125
40.436279296875,-4.436279296875,18.85205078125,65.14794921875
44.3353271484375,-4.3353271484375,15.05322265625,60.94677734375
29.6478271484375,-21.6478271484375,26.58935546875,73.41064453125
29.9859619140625,-21.9859619140625,23.6962890625,72.3037109375
41.4146728515625,-9.4146728515625,8.82763671875,59.17236328125
42.4429931640625,-6.4429931640625,20.3740234375,71.6259765625
39.8104248046875,-7.8104248046875,18.43798828125,69.56201171875
34.1566162109375,-14.1566162109375,18.81298828125,69.18701171875
29.719482421875,-21.719482421875,21.1328125,70.8671875
40.2310791015625,-16.2310791015625,11.1064453125,60.8935546875
37.0491943359375,-25.0491943359375,24.62353515625,75.37646484375
39.4249267578125,-27.4249267578125,5.77685546875,58.22314453125
40.762451171875,-28.762451171875,18.78173828125,73.21826171875
46.791748046875,-22.791748046875,3.9013671875,60.0986328125
45.642822265625,-21.642822265625,11.39404296875,68.60595703125
47.82177734375,-15.82177734375,21.4501953125,78.5498046875
34.0477294921875,-26.0477294921875,14.1279296875,69.8720703125
40.9866943359375,-16.9866943359375,21.25830078125,74.74169921875
48.9703369140625,-8.9703369140625,14.4599609375,65.5400390625
45.876953125,-13.876953125,17.28759765625,66.71240234375
41.2435302734375,-21.2435302734375,25.47509765625,74.52490234375
42.5489501953125,-22.5489501953125,25.09765625,74.90234375
47.4901123046875,-19.4901123046875,6.52783203125,57.47216796875
44.079833984375,-24.079833984375,4.1923828125,55.8076171875
36.515869140625,-32.515869140625,18.28125,69.71875
48.9351806640625,-20.9351806640625,18.56103515625,69.43896484375
39.2353515625,-31.2353515625,22.47998046875,73.52001953125
41.1087646484375,-29.1087646484375,13.5576171875,66.4423828125
40.2862548828125,-28.2862548828125,13.8232421875,70.1767578125
42.804443359375,-22.804443359375,13.9306640625,74.0693359375
51.1043701171875,-11.1043701171875,-1.13037109375,61.13037109375
45.852294921875,-13.852294921875,17.35693359375,78.64306640625
47.598388671875,-11.598388671875,1.39404296875,58.60595703125
32.474853515625,-28.474853515625,18.20458984375,69.79541015625
40.115478515625,-24.115478515625,16.654296875,63.345703125
35.8359375,-31.8359375,7.8583984375,52.1416015625
40.9678955078125,-28.9678955078125,21.6240234375,66.3759765625
51.1590576171875,-19.1590576171875,26.5087890625,73.4912109375
48.4827880859375,-20.4827880859375,15.4091796875,64.5908203125
45.320556640625,-21.320556640625,17.02880859375,66.97119140625
42.0953369140625,-22.0953369140625,17.55908203125,66.44091796875
49.0172119140625,-13.0172119140625,16.68212890625,63.31787109375
41.998291015625,-17.998291015625,21.8974609375,66.1025390625
40.7784423828125,-16.7784423828125,12.8603515625,55.1396484375
35.1981201171875,-19.1981201171875,29.53369140625,70.46630859375
35.415283203125,-15.415283203125,16.0791015625,55.9208984375
35.91943359375,-11.91943359375,18.6162109375,57.3837890625
41.3095703125,-5.3095703125,21.06591796875,58.93408203125
25.9755859375,-21.9755859375,31.21484375,68.78515625
39.8702392578125,-11.8702392578125,22.900390625,61.099609375
36.4881591796875,-20.4881591796875,16.185546875,55.814453125
39.0283203125,-23.0283203125,9.35986328125,50.64013671875
44.67529296875,-20.67529296875,28.78076171875,71.21923828125
48.888916015625,-16.888916015625,10.70458984375,53.29541015625
35.57568359375,-27.57568359375,13.17724609375,54.82275390625
43.080078125,-15.080078125,26.04443359375,65.95556640625
40.0341796875,-12.0341796875,11.04931640625,48.95068359375
33.16259765625,-13.16259765625,29.88427734375,66.11572265625
35.12060546875,-7.12060546875,14.265625,49.734375
24.3525390625,-16.3525390625,24.0048828125,59.9951171875
28.968994140625,-12.968994140625,15.1103515625,52.8896484375
24.6763916015625,-20.6763916015625,21.86865234375,62.13134765625
38.8447265625,-10.8447265625,28.7607421875,71.2392578125
38.7301025390625,-14.7301025390625,18.24267578125,61.75732421875
47.7738037109375,-7.7738037109375,24.50390625,67.49609375
29.8154296875,-25.8154296875,27.3681640625,68.6318359375
29.1025390625,-25.1025390625,28.40771484375,67.59228515625
40.1185302734375,-12.1185302734375,15.23291015625,52.76708984375
29.307373046875,-21.307373046875,25.66748046875,62.33251953125
40.8604736328125,-8.8604736328125,19.7646484375,56.2353515625
44.64794921875,-4.64794921875,31.65380859375,68.34619140625
32.349365234375,-16.349365234375,11.400390625,48.599609375
29.6802978515625,-17.6802978515625,25.02587890625,62.97412109375
42.57373046875,-2.57373046875,24.5517578125,63.4482421875
41.175537109375,-1.175537109375,26.091796875,65.908203125
37.6912841796875,-1.6912841796875,15.84521484375,56.15478515625
20.24169921875,-16.24169921875,23.99072265625,64.00927734375
36.8707275390625,3.1292724609375,14.56396484375,53.43603515625
17.6805419921875,-13.6805419921875,15.37646484375,52.62353515625
32.9464111328125,3.0535888671875,12.06591796875,47.93408203125
19.041748046875,-11.041748046875,28.30126953125,63.69873046875
36.173828125,3.826171875,19.96875,56.03125
32.100830078125,-4.100830078125,19.26318359375,56.73681640625
36.0936279296875,-4.0936279296875,22.54541015625,61.45458984375
25.2315673828125,-17.2315673828125,18.1396484375,57.8603515625
26.88818359375,-14.88818359375,26.16162109375,65.83837890625
25.1136474609375,-13.1136474609375,24.51318359375,63.48681640625
32.6949462890625,-0.6949462890625,24.99462890625,63.00537109375
16.8017578125,-12.8017578125,27.43115234375,64.56884765625
30.384765625,1.615234375,23.74609375,60.25390625
17.6610107421875,-13.6610107421875,11.919921875,48.080078125
25.9781494140625,-9.9781494140625,15.9130859375,52.0869140625
22.1668701171875,-18.1668701171875,23.65283203125,60.34716796875
25.1529541015625,-17.1529541015625,25.13134765625,62.86865234375
38.4786376953125,-2.4786376953125,12.52099609375,51.47900390625
28.472900390625,-8.472900390625,20.150390625,59.849609375
28.0218505859375,-4.0218505859375,22.3115234375,61.6884765625
26.1199951171875,-2.1199951171875,27.01708984375,64.98291015625
29.437744140625,2.562255859375,25.939453125,62.060546875
22.1051025390625,-6.1051025390625,32.6142578125,67.3857421875
27.76708984375,-3.76708984375,28.7158203125,63.2841796875
37.829833984375,2.170166015625,28.2587890625,63.7412109375
23.70849609375,-15.70849609375,21.52734375,58.47265625
34.965087890625,-6.965087890625,22.89111328125,61.10888671875
29.33740234375,-13.33740234375,30.5859375,69.4140625
24.7705078125,-16.7705078125,24.599609375,63.400390625
21.480712890625,-17.480712890625,12.70068359375,51.29931640625
27.951904296875,-7.951904296875,18.57958984375,57.42041015625
32.77392578125,-0.77392578125,30.0849609375,69.9150390625
32.385009765625,-0.385009765625,21.31396484375,62.68603515625
22.8631591796875,-10.8631591796875,8.5908203125,51.4091796875
33.9019775390625,-1.9019775390625,20.29638671875,63.70361328125
20.97412109375,-16.97412109375,8.6630859375,51.3369140625
29.5745849609375,-9.5745849609375,25.638671875,66.361328125
27.41943359375,-11.41943359375,20.8857421875,59.1142578125
30.5296630859375,-6.5296630859375,15.9755859375,52.0244140625
29.2061767578125,-5.2061767578125,32.5849609375,67.4150390625
33.9256591796875,2.0743408203125,30.65478515625,65.34521484375
31.1702880859375,0.8297119140625,26.3447265625,61.6552734375
27.221923828125,-3.221923828125,15.900390625,52.099609375
31.99658203125,0.00341796875,19.509765625,56.490234375
23.0423583984375,-11.0423583984375,19.2177734375,56.7822265625
33.7362060546875,-1.7362060546875,14.990234375,53.009765625
27.613525390625,-7.613525390625,14.75048828125,53.24951171875
28.6383056640625,-4.6383056640625,12.43017578125,51.56982421875
25.260986328125,-5.260986328125,17.9814453125,58.0185546875
32.2125244140625,3.7874755859375,25.4072265625,66.5927734375
34.12158203125,5.87841796875,18.77783203125,61.22216796875
35.1820068359375,4.8179931640625,12.21728515625,55.78271484375
33.0396728515625,-1.0396728515625,17.86669921875,62.13330078125
30.9991455078125,-6.9991455078125,15.802734375,60.197265625
34.3804931640625,-6.3804931640625,13.95458984375,58.04541015625
28.8192138671875,-12.8192138671875,18.1142578125,61.8857421875
32.3570556640625,-8.3570556640625,20.06103515625,63.93896484375
25.341552734375,-13.341552734375,7.72314453125,52.27685546875
34.2431640625,-2.2431640625,17.23828125,62.76171875
29.4864501953125,-5.4864501953125,10.8857421875,57.1142578125
35.3448486328125,0.6551513671875,16.9384765625,63.0615234375
29.906494140625,-5.906494140625,9.505859375,54.494140625
27.090087890625,-11.090087890625,16.51171875,59.48828125
40.6729736328125,-0.6729736328125,15.73095703125,56.26904296875
40.35986328125,-4.35986328125,24.90625,63.09375
37.8768310546875,-9.8768310546875,23.84716796875,60.15283203125
45.0721435546875,-5.0721435546875,22.45361328125,57.54638671875
37.9498291015625,-13.9498291015625,14.70458984375,49.29541015625
30.596435546875,-22.596435546875,20.638671875,55.361328125
47.0440673828125,-7.0440673828125,20.310546875,55.689453125
29.1881103515625,-25.1881103515625,15.78759765625,52.21240234375
44.84033203125,-8.84033203125,15.10400390625,52.89599609375
29.9161376953125,-21.9161376953125,14.24951171875,53.75048828125
36.6297607421875,-12.6297607421875,25.18310546875,66.81689453125
31.5191650390625,-15.5191650390625,23.92529296875,68.07470703125
41.2181396484375,-5.2181396484375,20.66650390625,67.33349609375
44.0792236328125,-4.0792236328125,23.79248046875,72.20751953125
29.90625,-21.90625,15.73779296875,64.26220703125
37.9730224609375,-17.9730224609375,20.6884765625,67.3115234375
41.3642578125,-17.3642578125,28.3896484375,71.6103515625
33.438720703125,-25.438720703125,26.1806640625,65.8193359375
38.1658935546875,-18.1658935546875,23.3212890625,60.6787109375
40.1624755859375,-12.1624755859375,29.36767578125,66.63232421875
40.387451171875,-8.387451171875,10.40478515625,49.59521484375
33.670654296875,-13.670654296875,28.9296875,71.0703125
44.333984375,-4.333984375,7.52587890625,52.47412109375
30.1004638671875,-22.1004638671875,6.5537109375,53.4462890625
34.2982177734375,-22.2982177734375,22.025390625,69.974609375
44.18896484375,-16.18896484375,11.751953125,60.248046875
41.234375,-21.234375,7.60693359375,56.39306640625
43.2352294921875,-19.2352294921875,17.68505859375,66.31494140625
38.3475341796875,-22.3475341796875,26.25634765625,73.74365234375
33.0087890625,-25.0087890625,19.49462890625,64.50537109375
29.794677734375,-25.794677734375,17.23828125,58.76171875
41.2357177734375,-13.2357177734375,16.92529296875,55.07470703125
47.6290283203125,-7.6290283203125,11.88232421875,48.11767578125
44.9002685546875,-12.9002685546875,17.7001953125,54.2998046875
50.575439453125,-10.575439453125,30.4921875,69.5078125
43.911376953125,-19.911376953125,14.8515625,57.1484375
48.1917724609375,-16.1917724609375,21.578125,66.421875
37.100341796875,-25.100341796875,21.28076171875,66.71923828125
36.980224609375,-20.980224609375,8.095703125,51.904296875
42.7889404296875,-10.7889404296875,13.62255859375,54.37744140625
33.700439453125,-17.700439453125,17.14208984375,54.85791015625
46.514404296875,-6.514404296875,18.001953125,53.998046875
37.1663818359375,-21.1663818359375,27.93310546875,64.06689453125
38.6507568359375,-26.6507568359375,13.123046875,50.876953125
41.498779296875,-29.498779296875,18.02685546875,57.97314453125
44.586669921875,-28.586669921875,29.099609375,70.900390625
37.7998046875,-33.7998046875,22.58740234375,65.41259765625
48.1689453125,-20.1689453125,18.49462890625,61.50537109375
37.4619140625,-29.4619140625,24.6689453125,67.3310546875
49.5294189453125,-21.5294189453125,14.87060546875,57.12939453125
45.7598876953125,-37.7598876953125,26.85595703125,69.14404296875
64.8095703125,-40.8095703125,10.3837890625,53.6162109375
70.62109375,-66.62109375,9.29443359375,54.70556640625
98.675537109375,-78.675537109375,7.666015625,56.333984375
130.373291015625,-94.373291015625,3.91845703125,56.08154296875
153.36328125,-125.36328125,22.7421875,77.2578125
189.62158203125,-149.62158203125,14.77099609375,69.22900390625
221.191162109375,-185.191162109375,6.17724609375,57.82275390625
255.68994140625,-223.68994140625,10.49951171875,57.50048828125
285.822998046875,-269.822998046875,16.83544921875,59.16455078125
331.21533203125,-299.21533203125,18.33154296875,57.66845703125
362.76220703125,-334.76220703125,22.63134765625,61.36865234375
391.431884765625,-359.431884765625,12.0126953125,51.9873046875
407.160400390625,-379.160400390625,23.15966796875,64.84033203125
415.419677734375,-387.419677734375,18.7685546875,61.2314453125
411.225341796875,-391.225341796875,23.17431640625,64.82568359375
408.695556640625,-380.695556640625,24.23828125,63.76171875
386.377685546875,-382.377685546875,29.4775390625,66.5224609375
392.564697265625,-352.564697265625,22.3515625,57.6484375
366.758544921875,-354.758544921875,22.529296875,57.470703125
367.447021484375,-331.447021484375,26.017578125,61.982421875
340.25537109375,-336.25537109375,25.13037109375,62.86962890625
344.3876953125,-308.3876953125,14.2939453125,53.7060546875
325.160888671875,-301.160888671875,11.81103515625,52.18896484375
304.38720703125,-292.38720703125,17.720703125,58.279296875
300.477294921875,-264.477294921875,29.84130859375,70.15869140625
268.288818359375,-264.288818359375,21.9609375,62.0390625
256.844970703125,-244.844970703125,22.0048828125,61.9951171875
243.035400390625,-231.035400390625,30.04150390625,69.95849609375
239.347412109375,-211.347412109375,24.162109375,63.837890625
219.703369140625,-211.703369140625,18.30859375,57.69140625
221.49609375,-193.49609375,18.30859375,57.69140625
213.90673828125,-185.90673828125,18.00439453125,57.99560546875
210.375,-174.375,19.45166015625,60.54833984375
202.948974609375,-166.948974609375,22.9482421875,65.0517578125
184.22900390625,-172.22900390625,8.8935546875,51.1064453125
186.890625,-158.890625,11.56005859375,52.43994140625
173.129150390625,-165.129150390625,10.919921875,49.080078125
186.41845703125,-146.41845703125,28.63671875,63.36328125
183.769287109375,-143.769287109375,22.20751953125,53.79248046875
172.28369140625,-148.28369140625,23.18310546875,52.81689453125
161.6513671875,-149.6513671875,33.33349609375,62.66650390625
156.273193359375,-144.273193359375,16.76318359375,47.23681640625
162.984619140625,-126.984619140625,27.884765625,60.115234375
152.5576171875,-128.5576171875,33.26513671875,66.73486328125
149.31494140625,-125.31494140625,31.373046875,64.626953125
155.0537109375,-115.0537109375,28.322265625,59.677734375
143.257080078125,-123.257080078125,21.79736328125,50.20263671875
143.4091796875,-119.4091796875,19.20458984375,44.79541015625
133.225830078125,-125.225830078125,35.98193359375,60.01806640625
136.716064453125,-116.716064453125,33.91845703125,58.08154296875
132.09130859375,-116.09130859375,31.25830078125,56.74169921875
133.608642578125,-109.608642578125,26.54833984375,53.45166015625
129.439453125,-109.439453125,24.2958984375,51.7041015625
127.600830078125,-107.600830078125,22.70068359375,49.29931640625
119.959716796875,-111.959716796875,17.583984375,42.416015625
124.262939453125,-104.262939453125,20.5830078125,43.4169921875
130.220703125,-94.220703125,27.40771484375,48.59228515625
113.66064453125,-105.66064453125,29.99267578125,50.00732421875
110.694580078125,-102.694580078125,38.43408203125,57.56591796875
123.78466796875,-83.78466796875,36.794921875,55.205078125
113.576171875,-89.576171875,38.943359375,57.056640625
118.52490234375,-82.52490234375,26.56884765625,45.43115234375
118.53564453125,-82.53564453125,33.388671875,54.611328125
108.887939453125,-92.887939453125,35.42236328125,60.57763671875
106.562255859375,-94.562255859375,19.1142578125,48.8857421875
106.81787109375,-90.81787109375,27.19189453125,60.80810546875
107.6435546875,-83.6435546875,12.28076171875,47.71923828125
105.7900390625,-77.7900390625,18.576171875,53.423828125
106.35693359375,-70.35693359375,33.71337890625,66.28662109375
90.188232421875,-82.188232421875,32.9873046875,63.0126953125
91.429931640625,-79.429931640625,21.71923828125,50.28076171875
97.49951171875,-73.49951171875,29.59130859375,58.40869140625
105.462646484375,-65.462646484375,30.7119140625,61.2880859375
92.5738525390625,-76.5738525390625,21.46484375,54.53515625
92.6353759765625,-72.6353759765625,22.24365234375,57.75634765625
82.01025390625,-78.01025390625,27.28662109375,64.71337890625
85.355224609375,-69.355224609375,22.67822265625,61.32177734375
93.266845703125,-57.266845703125,28.43701171875,67.56298828125
90.0152587890625,-58.0152587890625,12.58740234375,51.41259765625
91.4696044921875,-55.4696044921875,29.13330078125,66.86669921875
85.23681640625,-61.23681640625,14.00048828125,49.99951171875
80.9146728515625,-64.9146728515625,32.9951171875,67.0048828125
78.302978515625,-66.302978515625,27.85498046875,60.14501953125
81.449462890625,-61.449462890625,18.3525390625,49.6474609375
84.567138671875,-56.567138671875,26.36865234375,57.63134765625
75.8870849609375,-63.8870849609375,15.94677734375,48.05322265625
89.509521484375,-49.509521484375,17.25244140625,50.74755859375
75.27685546875,-63.27685546875,22.5068359375,57.4931640625
88.763671875,-48.763671875,29.9033203125,66.0966796875
71.4364013671875,-63.4364013671875,27.51953125,64.48046875
72.979736328125,-56.979736328125,21.31005859375,58.68994140625
71.5911865234375,-51.5911865234375,19.138671875,56.861328125
66.016845703125,-50.016845703125,18.89990234375,57.10009765625
63.2535400390625,-47.2535400390625,28.609375,67.390625
58.064208984375,-50.064208984375,26.42724609375,65.57275390625
68.5982666015625,-40.5982666015625,14.591796875,53.408203125
76.3175048828125,-36.3175048828125,13.22705078125,50.77294921875
74.258544921875,-42.258544921875,14.2099609375,49.7900390625
65.47314453125,-53.47314453125,25.1826171875,58.8173828125
71.3983154296875,-47.3983154296875,15.7470703125,48.2529296875
59.97998046875,-55.97998046875,15.70947265625,48.29052734375
71.56201171875,-39.56201171875,15.22412109375,48.77587890625
62.6842041015625,-42.6842041015625,24.67724609375,59.32275390625
51.92529296875,-47.92529296875,14.4248046875,49.5751953125
65.8055419921875,-29.8055419921875,20.5546875,55.4453125
66.6666259765625,-26.6666259765625,14.83740234375,49.16259765625
66.5399169921875,-26.5399169921875,28.89501953125,63.10498046875
67.1068115234375,-27.1068115234375,32.50830078125,67.49169921875
53.845947265625,-41.845947265625,29.84716796875,66.15283203125
56.30419921875,-40.30419921875,11.44091796875,48.55908203125
62.335693359375,-34.335693359375,25.86669921875,62.13330078125
58.1495361328125,-38.1495361328125,33.35107421875,66.64892578125
60.1461181640625,-36.1461181640625,27.57421875,56.42578125
68.589599609375,-28.589599609375,23.7822265625,48.2177734375
63.289794921875,-35.289794921875,19.17578125,40.82421875
63.5484619140625,-35.5484619140625,29.2978515625,50.7021484375
66.494140625,-30.494140625,30.20751953125,53.79248046875
57.657470703125,-33.657470703125,16.39990234375,43.60009765625
57.3585205078125,-25.3585205078125,18.54150390625,49.45849609375
44.6275634765625,-28.6275634765625,33.181640625,66.818359375
38.699462890625,-26.699462890625,22.560546875,57.439453125
38.3970947265625,-22.3970947265625,22.5888671875,57.4111328125
35.7755126953125,-23.7755126953125,14.974609375,49.025390625
34.2061767578125,-26.2061767578125,29.4296875,62.5703125
44.8128662109375,-16.8128662109375,21.80078125,54.19921875
38.966064453125,-22.966064453125,16.099609375,47.900390625
36.50634765625,-24.50634765625,14.44970703125,45.55029296875
39.631103515625,-19.631103515625,26.994140625,57.005859375
48.6103515625,-8.6103515625,25.79052734375,54.20947265625
29.584716796875,-25.584716796875,34.734375,61.265625
42.55322265625,-10.55322265625,21.5439453125,46.4560546875
35.480224609375,-15.480224609375,21.83251953125,46.16748046875
28.3714599609375,-20.3714599609375,31.28369140625,56.71630859375
31.270751953125,-15.270751953125,19.8271484375,48.1728515625
40.2169189453125,-4.2169189453125,25.73486328125,58.26513671875
37.2423095703125,-5.2423095703125,31.5576171875,68.4423828125
30.4072265625,-10.4072265625,11.95166015625,52.04833984375
27.8116455078125,-11.8116455078125,11.39892578125,52.60107421875
31.5556640625,-7.5556640625,9.9501953125,50.0498046875
25.6756591796875,-13.6756591796875,11.18212890625,48.81787109375
34.093994140625,-6.093994140625,24.3798828125,59.6201171875
28.6390380859375,-12.6390380859375,28.93359375,63.06640625
33.122802734375,-9.122802734375,16.66064453125,51.33935546875
27.447509765625,-15.447509765625,29.9189453125,66.0810546875
41.658447265625,-1.658447265625,19.39501953125,56.60498046875
23.9029541015625,-19.9029541015625,27.73193359375,64.26806640625
40.314697265625,-4.314697265625,21.13134765625,54.86865234375
28.910888671875,-16.910888671875,23.162109375,52.837890625
31.572509765625,-15.572509765625,36.93505859375,63.06494140625
28.1083984375,-20.1083984375,35.5546875,60.4453125
40.37451171875,-8.37451171875,24.62060546875,51.37939453125
38.364501953125,-10.364501953125,16.51953125,47.48046875
40.227294921875,-8.227294921875,24.2646484375,59.7353515625
40.1710205078125,-8.1710205078125,16.98291015625,55.01708984375
44.3416748046875,-4.3416748046875,21.2744140625,58.7255859375
28.770751953125,-20.770751953125,16.8779296875,51.1220703125
41.3970947265625,-9.3970947265625,26.7802734375,57.2197265625
34.1182861328125,-18.1182861328125,33.78076171875,62.21923828125
40.794921875,-12.794921875,31.1875,60.8125
37.2144775390625,-17.2144775390625,33.22998046875,66.77001953125
41.0869140625,-13.0869140625,18.97265625,57.02734375
38.1514892578125,-14.1514892578125,27.68603515625,68.31396484375
28.373046875,-20.373046875,24.11376953125,63.88623046875
36.11328125,-8.11328125,26.03662109375,61.96337890625
34.1025390625,-6.1025390625,24.42822265625,55.57177734375
35.1641845703125,-3.1641845703125,20.03759765625,47.96240234375
35.803466796875,-3.803466796875,34.05126953125,61.94873046875
37.89306640625,-5.89306640625,16.4853515625,47.5146484375
28.6607666015625,-20.6607666015625,24.09423828125,59.90576171875
29.01171875,-25.01171875,25.9404296875,66.0595703125
46.04541015625,-10.04541015625,26.857421875,69.142578125
47.48974609375,-7.48974609375,21.13330078125,62.86669921875
43.805908203125,-7.805908203125,14.50146484375,53.49853515625
37.9254150390625,-9.9254150390625,24.38427734375,59.61572265625
30.7591552734375,-14.7591552734375,30.240234375,61.759765625
38.7554931640625,-6.7554931640625,23.71923828125,52.28076171875
39.7130126953125,-7.7130126953125,28.70849609375,55.29150390625
30.944580078125,-18.944580078125,27.212890625,52.787109375
33.701904296875,-17.701904296875,19.283203125,44.716796875
41.6240234375,-9.6240234375,26.98779296875,53.01220703125
36.9530029296875,-12.9530029296875,36.44677734375,63.55322265625
30.3646240234375,-18.3646240234375,15.87158203125,44.12841796875
26.48974609375,-22.48974609375,31.53515625,60.46484375
31.42626953125,-19.42626953125,17.6728515625,46.3271484375
34.5947265625,-18.5947265625,16.34326171875,43.65673828125
37.0867919921875,-17.0867919921875,37.35302734375,62.64697265625
28.2933349609375,-24.2933349609375,26.30615234375,49.69384765625
36.380859375,-12.380859375,32.77978515625,55.22021484375
26.277587890625,-18.277587890625,22.5234375,45.4765625
27.1317138671875,-15.1317138671875,19.57958984375,44.42041015625
39.5693359375,-3.5693359375,22.27880859375,49.72119140625
41.27001953125,-5.27001953125,17.10205078125,46.89794921875
27.1473388671875,-23.1473388671875,28.47607421875,59.52392578125
30.0361328125,-22.0361328125,26.54443359375,57.45556640625
39.4168701171875,-11.4168701171875,35.06396484375,64.93603515625
27.7177734375,-19.7177734375,19.51123046875,48.48876953125
24.0087890625,-20.0087890625,27.3505859375,56.6494140625
31.3546142578125,-11.3546142578125,32.37255859375,63.62744140625
32.241943359375,-12.241943359375,20.8369140625,55.1630859375
34.3902587890625,-14.3902587890625,29.38916015625,66.61083984375
38.9718017578125,-14.9718017578125,22.7294921875,61.2705078125
41.0416259765625,-17.0416259765625,25.26416015625,62.73583984375
43.957763671875,-15.957763671875,12.89501953125,47.10498046875
41.6029052734375,-17.6029052734375,17.05859375,46.94140625
46.3487548828125,-10.3487548828125,29.0009765625,54.9990234375
28.8016357421875,-24.8016357421875,30.11474609375,53.88525390625
45.5238037109375,-5.5238037109375,26.1923828125,49.8076171875
38.87158203125,-10.87158203125,31.466796875,56.533203125
27.010498046875,-23.010498046875,34.4150390625,61.5849609375
29.9935302734375,-21.9935302734375,31.47998046875,60.52001953125
39.7679443359375,-15.7679443359375,22.826171875,53.173828125
46.093994140625,-14.093994140625,16.3212890625,47.6787109375
34.4818115234375,-30.4818115234375,19.69482421875,52.30517578125
44.2874755859375,-24.2874755859375,24.78173828125,59.21826171875
54.9874267578125,-14.9874267578125,27.6904296875,64.3095703125
48.4677734375,-20.4677734375,20.80908203125,59.19091796875
41.1251220703125,-25.1251220703125,14.61962890625,53.38037109375
43.6468505859375,-19.6468505859375,25.4365234375,62.5634765625
42.607421875,-18.607421875,13.1943359375,46.8056640625
38.1453857421875,-22.1453857421875,21.431640625,50.568359375
33.953369140625,-25.953369140625,19.47412109375,44.52587890625
49.5643310546875,-9.5643310546875,34.720703125,57.279296875
48.710693359375,-8.710693359375,26.8994140625,49.1005859375
29.5191650390625,-25.5191650390625,18.16015625,41.83984375
36.4366455078125,-16.4366455078125,34.96826171875,61.03173828125
39.98193359375,-11.98193359375,19.82177734375,48.17822265625
44.4794921875,-8.4794921875,26.943359375,57.056640625
41.92138671875,-13.92138671875,18.15380859375,49.84619140625
31.9921875,-27.9921875,15.03271484375,48.96728515625
50.222900390625,-14.222900390625,19.3203125,56.6796875
46.1986083984375,-22.1986083984375,27.23046875,68.76953125
53.7237548828125,-17.7237548828125,25.44873046875,70.55126953125
54.8616943359375,-18.8616943359375,16.7490234375,63.2509765625
53.804443359375,-21.804443359375,27.51416015625,72.48583984375
54.6353759765625,-22.6353759765625,29.4755859375,70.5244140625
57.18701171875,-21.18701171875,21.84033203125,58.15966796875
53.1102294921875,-25.1102294921875,17.671875,50.328125
52.137451171875,-24.137451171875,22.3349609375,53.6650390625
46.33935546875,-26.33935546875,25.73779296875,58.26220703125
54.1993408203125,-14.1993408203125,28.298828125,63.701171875
36.4482421875,-28.4482421875,28.6884765625,67.3115234375
41.754150390625,-21.754150390625,27.484375,68.515625
38.425048828125,-26.425048828125,8.9609375,51.0390625
36.2784423828125,-32.2784423828125,23.08251953125,64.91748046875
38.729736328125,-34.729736328125,29.62646484375,70.37353515625
59.064453125,-19.064453125,12.3466796875,51.6533203125
46.7530517578125,-34.7530517578125,21.04443359375,58.95556640625
53.650390625,-29.650390625,11.60986328125,48.39013671875
57.969482421875,-25.969482421875,19.96728515625,56.03271484375
62.0870361328125,-22.0870361328125,16.0751953125,51.9248046875
48.3111572265625,-36.3111572265625,11.916015625,48.083984375
52.7430419921875,-32.7430419921875,25.52685546875,62.47314453125
49.2757568359375,-37.2757568359375,23.04150390625,60.95849609375
61.691162109375,-25.691162109375,16.669921875,55.330078125
51.796875,-35.796875,30.64453125,69.35546875
51.5106201171875,-35.5106201171875,15.142578125,52.857421875
50.8565673828125,-34.8565673828125,32.1875,67.8125
53.8929443359375,-29.8929443359375,29.59765625,62.40234375
48.6658935546875,-32.6658935546875,17.0185546875,46.9814453125
43.2418212890625,-35.2418212890625,36.056640625,63.943359375
57.77197265625,-17.77197265625,28.45458984375,55.54541015625
48.5045166015625,-24.5045166015625,36.20458984375,63.79541015625
49.727294921875,-21.727294921875,25.541015625,54.458984375
51.6678466796875,-19.6678466796875,20.79833984375,51.20166015625
42.3858642578125,-30.3858642578125,32.2421875,63.7578125
45.691650390625,-29.691650390625,23.96923828125,56.03076171875
47.15625,-31.15625,13.9482421875,46.0517578125
46.258544921875,-34.258544921875,16.1630859375,47.8369140625
44.668212890625,-36.668212890625,20.63623046875,51.36376953125
56.4903564453125,-24.4903564453125,17.38134765625,46.61865234375
54.2830810546875,-26.2830810546875,18.2529296875,45.7470703125
46.7498779296875,-34.7498779296875,28.91845703125,55.08154296875
60.278076171875,-24.278076171875,23.05419921875,48.94580078125
62.6279296875,-26.6279296875,36.58642578125,63.41357421875
65.017822265625,-29.017822265625,17.826171875,46.173828125
68.5789794921875,-28.5789794921875,23.32080078125,52.67919921875
54.8857421875,-42.8857421875,23.51953125,52.48046875
52.2100830078125,-44.2100830078125,34.458984375,61.541015625
51.334228515625,-43.334228515625,21.7197265625,46.2802734375
53.0389404296875,-41.0389404296875,24.68359375,47.31640625
51.6029052734375,-43.6029052734375,30.90478515625,53.09521484375
66.6407470703125,-30.6407470703125,22.36279296875,45.63720703125
51.3707275390625,-47.3707275390625,23.43310546875,48.56689453125
53.151611328125,-45.151611328125,24.61669921875,51.38330078125
57.8956298828125,-37.8956298828125,36.20068359375,63.79931640625
58.09033203125,-34.09033203125,22.1103515625,49.8896484375
54.43505859375,-34.43505859375,36.001953125,63.998046875
47.3800048828125,-39.3800048828125,31.576171875,60.423828125
46.880859375,-38.880859375,24.826171875,55.173828125
44.515625,-40.515625,18.08056640625,49.91943359375
49.85400390625,-33.85400390625,17.76123046875,50.23876953125
44.8358154296875,-36.8358154296875,32.068359375,63.931640625
43.89697265625,-35.89697265625,26.82177734375,57.17822265625
51.7322998046875,-27.7322998046875,33.52783203125,62.47216796875
42.8245849609375,-38.8245849609375,31.7119140625,60.2880859375
47.0496826171875,-39.0496826171875,27.236328125,56.763671875
63.65625,-27.65625,20.4013671875,51.5986328125
59.66015625,-35.66015625,29.75,62.25
64.41455078125,-32.41455078125,29.734375,62.265625
49.971435546875,-45.971435546875,34.451171875,65.548828125
48.989990234375,-44.989990234375,23.66455078125,52.33544921875
50.258544921875,-42.258544921875,36.9970703125,63.0029296875
54.169189453125,-38.169189453125,38.1455078125,61.8544921875
50.5020751953125,-42.5020751953125,20.95458984375,43.04541015625
60.6287841796875,-32.6287841796875,25.33935546875,46.66064453125
59.96240234375,-31.96240234375,37.2158203125,58.7841796875
58.3367919921875,-30.3367919921875,22.51708984375,45.48291015625
44.108154296875,-40.108154296875,25.31787109375,50.68212890625
45.95458984375,-33.95458984375,15.8994140625,44.1005859375
52.5321044921875,-24.5321044921875,18.7275390625,49.2724609375
48.16748046875,-28.16748046875,18.26904296875,49.73095703125
46.7449951171875,-30.7449951171875,24.76611328125,55.23388671875
51.829833984375,-27.829833984375,26.07763671875,53.92236328125
52.9456787109375,-28.9456787109375,33.70458984375,58.29541015625
45.8377685546875,-37.8377685546875,26.97412109375,49.02587890625
62.58251953125,-22.58251953125,37.32568359375,58.67431640625
61.50390625,-25.50390625,24.57275390625,47.42724609375
62.9556884765625,-26.9556884765625,36.99072265625,63.00927734375
59.0745849609375,-35.0745849609375,33.19287109375,62.80712890625
63.634765625,-35.634765625,31.86083984375,64.13916015625
70.117431640625,-34.117431640625,23.43896484375,56.56103515625
69.9681396484375,-37.9681396484375,27.9990234375,60.0009765625
68.91015625,-40.91015625,23.2451171875,52.7548828125
63.1195068359375,-47.1195068359375,32.6650390625,59.3349609375
59.1572265625,-51.1572265625,21.7109375,46.2890625
67.6727294921875,-43.6727294921875,21.93896484375,46.06103515625
61.0296630859375,-53.0296630859375,23.111328125,48.888671875
