V1,V2,V3,V4
12.5,11.5,42.0,42.0
20.0,20.0,44.0,44.0
13.8837890625,14.1162109375,38.5556640625,37.4443359375
17.5029296875,18.4970703125,51.35107421875,48.64892578125
15.05859375,16.94140625,34.3388671875,29.6611328125
4.8056640625,7.1943359375,51.396484375,44.603515625
4.88720703125,7.11279296875,36.35498046875,27.64501953125
19.25048828125,20.74951171875,55.03759765625,44.96240234375
19.65087890625,20.34912109375,55.3056640625,44.6943359375
11.7802734375,12.2197265625,47.10986328125,36.89013671875
9.439453125,10.560546875,38.50830078125,29.49169921875
8.66650390625,11.33349609375,33.66552734375,26.33447265625
-0.26953125,4.26953125,46.826171875,41.173828125
4.9873046875,11.0126953125,36.24658203125,31.75341796875
6.6982421875,13.3017578125,32.11328125,27.88671875
10.93115234375,17.06884765625,34.44580078125,29.55419921875
7.56103515625,12.43896484375,39.0693359375,32.9306640625
2.345703125,5.654296875,39.7021484375,32.2978515625
9.01513671875,10.98486328125,42.08544921875,33.91455078125
15.35498046875,16.64501953125,34.10400390625,25.89599609375
15.27197265625,16.72802734375,39.8056640625,32.1943359375
10.81591796875,13.18408203125,43.33984375,36.66015625
6.1318359375,9.8681640625,36.8662109375,31.1337890625
15.380859375,20.619140625,42.47802734375,37.52197265625
16.67724609375,23.32275390625,40.18017578125,35.81982421875
12.06201171875,19.93798828125,33.912109375,30.087890625
11.51416015625,20.48583984375,31.59326171875,28.40673828125
10.974609375,21.025390625,43.16943359375,40.83056640625
-1.59814453125,9.59814453125,30.642578125,29.357421875
3.8466796875,16.1533203125,42.080078125,41.919921875
13.46875,26.53125,35.5712890625,36.4287109375
-4.54248046875,8.54248046875,37.19482421875,38.80517578125
-2.11572265625,10.11572265625,48.9716796875,51.0283203125
-3.41552734375,7.41552734375,44.8603515625,47.1396484375
11.18896484375,20.81103515625,28.8076171875,31.1923828125
15.27197265625,24.72802734375,44.8173828125,47.1826171875
6.56494140625,17.43505859375,48.978515625,51.021484375
3.1123046875,16.8876953125,35.42041015625,36.57958984375
7.29736328125,24.70263671875,40.2041015625,39.7958984375
-6.3125,14.3125,45.24365234375,42.75634765625
8.77978515625,31.22021484375,44.326171875,39.673828125
-3.22119140625,19.22119140625,43.1875,36.8125
5.52001953125,26.47998046875,43.642578125,36.357421875
0.58154296875,19.41845703125,47.65869140625,40.34130859375
-4.4970703125,12.4970703125,39.35986328125,32.64013671875
-2.0185546875,14.0185546875,36.94384765625,31.05615234375
-2.0341796875,14.0341796875,50.572265625,45.427734375
-6.37744140625,10.37744140625,34.275390625,29.724609375
5.23193359375,22.76806640625,37.966796875,34.033203125
-4.94189453125,12.94189453125,37.5234375,34.4765625
-6.76318359375,10.76318359375,48.89990234375,47.10009765625
1.7548828125,18.2451171875,32.1875,31.8125
4.494140625,19.505859375,29.5654296875,30.4345703125
11.3017578125,24.6982421875,37.201171875,38.798828125
-1.97900390625,9.97900390625,47.16015625,48.83984375
0.50048828125,11.49951171875,39.40478515625,40.59521484375
-1.37939453125,9.37939453125,47.8515625,48.1484375
0.35107421875,11.64892578125,32.4287109375,31.5712890625
11.78515625,24.21484375,49.0947265625,46.9052734375
11.10595703125,24.89404296875,31.79150390625,28.20849609375
-1.50439453125,13.50439453125,42.39111328125,37.60888671875
-3.9853515625,11.9853515625,38.65234375,33.34765625
11.5068359375,28.4931640625,38.22119140625,33.77880859375
2.55029296875,21.44970703125,50.64697265625,49.35302734375
-1.52099609375,21.52099609375,37.3994140625,42.6005859375
-1.482421875,29.482421875,35.9267578125,52.0732421875
-6.0068359375,38.0068359375,15.759765625,48.240234375
-27.43115234375,35.43115234375,8.66845703125,63.33154296875
-41.59765625,45.59765625,-7.193359375,75.193359375
-37.81640625,77.81640625,-23.2158203125,91.2158203125
-70.99609375,74.99609375,-32.3740234375,116.3740234375
-69.91455078125,105.91455078125,-53.375,129.375
-81.5205078125,121.5205078125,-72.884765625,140.884765625
-109.130859375,117.130859375,-71.75390625,167.75390625
-108.45849609375,136.45849609375,-93.22216796875,165.22216796875
-125.5087890625,133.5087890625,-93.044921875,177.044921875
-114.47265625,154.47265625,-105.544921875,169.544921875
-117.66845703125,157.66845703125,-93.52978515625,181.52978515625
-121.50439453125,157.50439453125,-106.091796875,166.091796875
-120.421875,160.421875,-84.310546875,184.310546875
-124.79345703125,156.79345703125,-90.9833984375,174.9833984375
-132.859375,148.859375,-94.462890625,170.462890625
-136.73583984375,144.73583984375,-98.65625,166.65625
-122.4697265625,158.4697265625,-93.15966796875,173.15966796875
-130.0888671875,150.0888671875,-85.49658203125,181.49658203125
-125.61767578125,153.61767578125,-85.35205078125,181.35205078125
-125.0908203125,153.0908203125,-92.68115234375,172.68115234375
-126.5576171875,150.5576171875,-83.68408203125,179.68408203125
-132.10546875,144.10546875,-100.6669921875,160.6669921875
-125.8466796875,149.8466796875,-95.9150390625,163.9150390625
-127.888671875,147.888671875,-79.6044921875,179.6044921875
-130.27392578125,146.27392578125,-81.8095703125,177.8095703125
-126.92431640625,150.92431640625,-96.48779296875,164.48779296875
-121.638671875,157.638671875,-81.49267578125,181.49267578125
-136.18212890625,144.18212890625,-82.5732421875,182.5732421875
-134.40625,146.40625,-87.43359375,179.43359375
-126.33251953125,154.33251953125,-93.8310546875,173.8310546875
-134.11767578125,146.11767578125,-85.67138671875,181.67138671875
-137.9326171875,141.9326171875,-93.0625,173.0625
-123.8505859375,155.8505859375,-96.28125,168.28125
-129.82177734375,149.82177734375,-101.67529296875,161.67529296875
-137.720703125,141.720703125,-87.537109375,175.537109375
-133.4345703125,145.4345703125,-97.978515625,165.978515625
-128.93212890625,148.93212890625,-96.91162109375,168.91162109375
-132.29443359375,144.29443359375,-98.08544921875,170.08544921875
-133.70166015625,141.70166015625,-103.224609375,167.224609375
-129.34814453125,145.34814453125,-88.142578125,184.142578125
-129.3330078125,145.3330078125,-102.7978515625,170.7978515625
-119.58154296875,155.58154296875,-97.24609375,177.24609375
-125.875,149.875,-93.54443359375,181.54443359375
-129.96240234375,145.96240234375,-105.67724609375,169.67724609375
-117.6884765625,157.6884765625,-101.57080078125,173.57080078125
-127.0673828125,147.0673828125,-101.16259765625,173.16259765625
-120.25439453125,152.25439453125,-92.4580078125,180.4580078125
-123.466796875,147.466796875,-101.525390625,169.525390625
-124.869140625,144.869140625,-90.46337890625,178.46337890625
-118.5029296875,150.5029296875,-93.36474609375,173.36474609375
-118.28515625,150.28515625,-96.33544921875,168.33544921875
-116.08203125,152.08203125,-95.501953125,167.501953125
-113.79833984375,153.79833984375,-94.9833984375,166.9833984375
-117.4189453125,149.4189453125,-90.82080078125,170.82080078125
-118.984375,146.984375,-80.93701171875,180.93701171875
-118.5546875,146.5546875,-95.14697265625,167.14697265625
-114.1826171875,150.1826171875,-81.2763671875,181.2763671875
-117.91455078125,145.91455078125,-81.2724609375,181.2724609375
-111.79443359375,151.79443359375,-89.2373046875,173.2373046875
-127.859375,135.859375,-95.333984375,167.333984375
-114.158203125,150.158203125,-87.6328125,175.6328125
-130.73193359375,134.73193359375,-82.0361328125,182.0361328125
-125.58251953125,141.58251953125,-90.32666015625,174.32666015625
-124.6279296875,144.6279296875,-90.314453125,174.314453125
-125.7001953125,145.7001953125,-101.9599609375,161.9599609375
-116.60888671875,156.60888671875,-81.4013671875,181.4013671875
-129.2236328125,145.2236328125,-90.87646484375,170.87646484375
-129.525390625,145.525390625,-82.5908203125,178.5908203125
-135.5859375,139.5859375,-98.61962890625,162.61962890625
-123.50537109375,151.50537109375,-100.8857421875,160.8857421875
-125.36083984375,149.36083984375,-101.2119140625,161.2119140625
-135.19140625,139.19140625,-81.4130859375,181.4130859375
-117.02880859375,157.02880859375,-87.40234375,175.40234375
-116.939453125,156.939453125,-81.2314453125,181.2314453125
-117.03515625,157.03515625,-85.04833984375,177.04833984375
-123.43408203125,151.43408203125,-88.97900390625,172.97900390625
-126.17138671875,150.17138671875,-85.02490234375,177.02490234375
-125.12109375,153.12109375,-89.03271484375,173.03271484375
-129.9951171875,149.9951171875,-92.76416015625,168.76416015625
-138.44775390625,142.44775390625,-94.04541015625,166.04541015625
-134.23291015625,146.23291015625,-90.8916015625,166.8916015625
-119.32470703125,159.32470703125,-85.54052734375,169.54052734375
-125.93359375,149.93359375,-82.36279296875,170.36279296875
-134.41845703125,138.41845703125,-75.6728515625,175.6728515625
-129.14892578125,141.14892578125,-83.56689453125,167.56689453125
-114.37890625,154.37890625,-81.84765625,169.84765625
-122.17138671875,146.17138671875,-82.1123046875,170.1123046875
-128.40966796875,140.40966796875,-81.93310546875,169.93310546875
-130.87939453125,138.87939453125,-79.0556640625,171.0556640625
-129.3828125,141.3828125,-73.5166015625,173.5166015625
-131.80126953125,139.80126953125,-85.6455078125,157.6455078125
-126.09375,146.09375,-79.92822265625,159.92822265625
-116.2412109375,156.2412109375,-74.828125,162.828125
-118.201171875,154.201171875,-78.6083984375,158.6083984375
-125.9091796875,145.9091796875,-77.25244140625,161.25244140625
-115.33447265625,155.33447265625,-74.4833984375,166.4833984375
-122.55322265625,146.55322265625,-89.87451171875,153.87451171875
-125.77783203125,141.77783203125,-77.025390625,169.025390625
-127.30517578125,139.30517578125,-85.6787109375,161.6787109375
-127.39208984375,139.39208984375,-77.81298828125,169.81298828125
-122.1083984375,146.1083984375,-73.5947265625,173.5947265625
-125.26953125,145.26953125,-91.271484375,155.271484375
-128.49462890625,144.49462890625,-83.046875,163.046875
-131.365234375,143.365234375,-72.9873046875,172.9873046875
-127.59619140625,147.59619140625,-91.01025390625,155.01025390625
-125.12841796875,149.12841796875,-90.94384765625,154.94384765625
-122.12255859375,150.12255859375,-90.61279296875,154.61279296875
-122.86474609375,146.86474609375,-75.92822265625,167.92822265625
-115.64208984375,151.64208984375,-70.93017578125,170.93017578125
-120.64111328125,144.64111328125,-73.767578125,165.767578125
-127.9091796875,135.9091796875,-70.642578125,166.642578125
-125.39306640625,137.39306640625,-67.7412109375,167.7412109375
-113.01806640625,149.01806640625,-75.18896484375,159.18896484375
-118.74560546875,142.74560546875,-81.0595703125,153.0595703125
-110.5947265625,150.5947265625,-83.38623046875,151.38623046875
-118.60302734375,142.60302734375,-80.17578125,156.17578125
-126.7724609375,134.7724609375,-83.36328125,155.36328125
-117.025390625,145.025390625,-70.7568359375,170.7568359375
-117.2177734375,145.2177734375,-76.03857421875,168.03857421875
-119.208984375,143.208984375,-86.85400390625,158.85400390625
-122.9541015625,138.9541015625,-86.978515625,158.978515625
-120.546875,140.546875,-78.44384765625,166.44384765625
-110.17529296875,150.17529296875,-85.556640625,157.556640625
-120.0107421875,140.0107421875,-78.76123046875,162.76123046875
-122.115234375,138.115234375,-70.42578125,170.42578125
-128.416015625,132.416015625,-76.66455078125,164.66455078125
-120.74462890625,140.74462890625,-85.29248046875,157.29248046875
-128.91455078125,132.91455078125,-89.919921875,153.919921875
-124.80517578125,136.80517578125,-90.1396484375,154.1396484375
-124.404296875,136.404296875,-89.69482421875,153.69482421875
-109.79931640625,149.79931640625,-86.58837890625,154.58837890625
-123.107421875,135.107421875,-83.05859375,155.05859375
-118.41552734375,138.41552734375,-69.47314453125,165.47314453125
-119.765625,135.765625,-80.173828125,152.173828125
-125.2041015625,129.2041015625,-69.36962890625,161.36962890625
-106.82080078125,146.82080078125,-65.1103515625,165.1103515625
-110.73876953125,142.73876953125,-75.33251953125,155.33251953125
-125.044921875,129.044921875,-73.9130859375,157.9130859375
-107.72021484375,147.72021484375,-82.701171875,150.701171875
-126.61083984375,130.61083984375,-83.5244140625,151.5244140625
-123.47265625,135.47265625,-74.19677734375,162.19677734375
-116.05224609375,144.05224609375,-74.55078125,162.55078125
-128.181640625,132.181640625,-68.5068359375,168.5068359375
-125.837890625,133.837890625,-82.10693359375,154.10693359375
-119.134765625,139.134765625,-73.53857421875,161.53857421875
-114.2587890625,142.2587890625,-77.0712890625,157.0712890625
-111.40673828125,143.40673828125,-80.94970703125,152.94970703125
-122.76416015625,130.76416015625,-87.2880859375,147.2880859375
-108.49560546875,144.49560546875,-72.0087890625,164.0087890625
-122.701171875,130.701171875,-68.876953125,168.876953125
-121.3349609375,133.3349609375,-83.60546875,155.60546875
-108.173828125,148.173828125,-77.97607421875,161.97607421875
-122.8798828125,134.8798828125,-73.91552734375,165.91552734375
-119.158203125,139.158203125,-79.505859375,159.505859375
-124.9248046875,132.9248046875,-88.94970703125,148.94970703125
-110.3759765625,146.3759765625,-70.47509765625,166.47509765625
-117.90869140625,137.90869140625,-78.24365234375,158.24365234375
-115.9169921875,139.9169921875,-70.27490234375,166.27490234375
-114.57666015625,142.57666015625,-74.4462890625,162.4462890625
-119.7060546875,139.7060546875,-74.5751953125,162.5751953125
-128.8251953125,132.8251953125,-78.51904296875,158.51904296875
-121.38623046875,141.38623046875,-70.2490234375,166.2490234375
-111.0595703125,151.0595703125,-67.85107421875,167.85107421875
-117.90576171875,141.90576171875,-71.4931640625,163.4931640625
-108.3662109375,148.3662109375,-79.35400390625,155.35400390625
-115.05419921875,139.05419921875,-69.5537109375,165.5537109375
-114.47509765625,138.47509765625,-68.1171875,168.1171875
-118.80029296875,134.80029296875,-84.98974609375,152.98974609375
-117.80078125,137.80078125,-84.0849609375,156.0849609375
-118.99267578125,138.99267578125,-79.31689453125,163.31689453125
-127.89208984375,131.89208984375,-92.580078125,152.580078125
-124.23388671875,136.23388671875,-79.7177734375,167.7177734375
-120.02197265625,140.02197265625,-90.51513671875,158.51513671875
-115.43408203125,143.43408203125,-90.76220703125,158.76220703125
-110.66650390625,146.66650390625,-78.34423828125,170.34423828125
-121.83154296875,133.83154296875,-85.31884765625,161.31884765625
-108.931640625,144.931640625,-81.94873046875,161.94873046875
-111.904296875,139.904296875,-78.64453125,162.64453125
-122.6884765625,126.6884765625,-87.8369140625,151.8369140625
-121.2841796875,125.2841796875,-87.822265625,151.822265625
-115.7763671875,127.7763671875,-86.63818359375,154.63818359375
-104.31591796875,136.31591796875,-74.03857421875,170.03857421875
-105.080078125,133.080078125,-73.57177734375,173.57177734375
-106.232421875,130.232421875,-94.732421875,154.732421875
-97.88330078125,137.88330078125,-79.1298828125,171.1298828125
-106.03759765625,130.03759765625,-74.6337890625,174.6337890625
-98.55078125,138.55078125,-85.447265625,161.447265625
-105.1337890625,133.1337890625,-92.04541015625,152.04541015625
-107.4501953125,131.4501953125,-91.00341796875,151.00341796875
-117.26953125,121.26953125,-72.7509765625,168.7509765625
-98.5791015625,138.5791015625,-83.3837890625,159.3837890625
-115.60009765625,119.60009765625,-76.61669921875,168.61669921875
-102.68701171875,130.68701171875,-73.9130859375,173.9130859375
-112.18603515625,120.18603515625,-92.720703125,156.720703125
-110.3037109375,122.3037109375,-88.716796875,160.716796875
-107.03515625,127.03515625,-77.94677734375,169.94677734375
-98.17236328125,138.17236328125,-82.79296875,162.79296875
-101.39794921875,137.39794921875,-83.79833984375,159.79833984375
-100.4267578125,140.4267578125,-89.4072265625,153.4072265625
-101.1123046875,141.1123046875,-89.7861328125,153.7861328125
-101.45458984375,141.45458984375,-78.7900390625,166.7900390625
-103.52099609375,139.52099609375,-74.05810546875,174.05810546875
-113.3583984375,129.3583984375,-81.1826171875,169.1826171875
-102.984375,138.984375,-95.841796875,155.841796875
-118.43359375,122.43359375,-91.89599609375,159.89599609375
-109.810546875,129.810546875,-93.38818359375,157.38818359375
-99.275390625,139.275390625,-94.4931640625,154.4931640625
-110.9833984375,126.9833984375,-87.42919921875,159.42919921875
-115.0166015625,123.0166015625,-72.39990234375,172.39990234375
-103.3369140625,135.3369140625,-89.56982421875,153.56982421875
-115.80029296875,123.80029296875,-89.04052734375,153.04052734375
-116.228515625,124.228515625,-82.8076171875,158.8076171875
-106.50537109375,134.50537109375,-88.7607421875,152.7607421875
-100.63037109375,140.63037109375,-82.71240234375,158.71240234375
-100.673828125,140.673828125,-70.5078125,170.5078125
-114.67919921875,126.67919921875,-72.13134765625,168.13134765625
-116.58935546875,124.58935546875,-77.744140625,161.744140625
-100.2607421875,140.2607421875,-83.6162109375,155.6162109375
-113.5458984375,125.5458984375,-74.0009765625,166.0009765625
-116.39453125,120.39453125,-81.00048828125,161.00048828125
-98.912109375,134.912109375,-92.47802734375,152.47802734375
-103.35791015625,127.35791015625,-90.0625,158.0625
-96.0576171875,132.0576171875,-81.27587890625,169.27587890625
-109.26904296875,117.26904296875,-75.73876953125,175.73876953125
-95.07080078125,131.07080078125,-87.3681640625,163.3681640625
-97.357421875,129.357421875,-80.41015625,168.41015625
-105.91455078125,121.91455078125,-93.30029296875,153.30029296875
-108.4775390625,120.4775390625,-82.41845703125,162.41845703125
-104.7080078125,124.7080078125,-77.890625,165.890625
-96.1298828125,132.1298828125,-83.4638671875,159.4638671875
-110.1484375,114.1484375,-84.5478515625,156.5478515625
-100.193359375,116.193359375,-84.35888671875,152.35888671875
-91.884765625,111.884765625,-76.1455078125,152.1455078125
-87.1162109375,99.1162109375,-69.35009765625,145.35009765625
-70.001953125,94.001953125,-49.72119140625,145.72119140625
-50.81103515625,86.81103515625,-41.36083984375,129.36083984375
-51.9873046875,55.9873046875,-32.759765625,108.759765625
-20.29345703125,56.29345703125,-10.7919921875,98.7919921875
-4.9365234375,40.9365234375,7.3818359375,84.6181640625
0.49755859375,19.50244140625,22.5126953125,69.4873046875
18.38671875,17.61328125,25.49951171875,46.50048828125
9.5986328125,-1.5986328125,31.568359375,32.431640625
23.9248046875,12.0751953125,54.37744140625,41.62255859375
6.1708984375,1.8291015625,54.029296875,33.970703125
-2.14208984375,6.14208984375,61.03662109375,38.96337890625
-3.30419921875,19.30419921875,48.22412109375,27.77587890625
2.10107421875,37.89892578125,38.556640625,21.443359375
-7.08251953125,39.08251953125,46.91552734375,33.08447265625
-20.63818359375,32.63818359375,53.89599609375,42.10400390625
-22.84375,34.84375,37.6875,26.3125
-28.22802734375,32.22802734375,46.111328125,33.888671875
-27.28125,35.28125,38.794921875,25.205078125
-18.2646484375,46.2646484375,51.3857421875,36.6142578125
-25.17919921875,41.17919921875,43.720703125,28.279296875
-23.9111328125,43.9111328125,57.83984375,42.16015625
-22.416015625,46.416015625,41.88232421875,26.11767578125
-14.81298828125,54.81298828125,49.92236328125,34.07763671875
-19.32421875,51.32421875,41.92041015625,26.07958984375
-22.1142578125,50.1142578125,43.75927734375,28.24072265625
-21.1416015625,53.1416015625,53.36376953125,38.63623046875
-20.1318359375,56.1318359375,48.77197265625,35.22802734375
-28.68505859375,48.68505859375,36.14453125,23.85546875
-30.47314453125,46.47314453125,45.6904296875,34.3095703125
-35.4111328125,39.4111328125,53.56884765625,42.43115234375
-15.72265625,55.72265625,43.806640625,32.193359375
-31.8603515625,35.8603515625,38.28857421875,25.71142578125
-14.333984375,50.333984375,52.8310546875,39.1689453125
-25.50537109375,37.50537109375,45.28466796875,30.71533203125
-19.443359375,43.443359375,49.60107421875,34.39892578125
-17.89501953125,45.89501953125,45.81103515625,30.18896484375
-12.392578125,52.392578125,51.96240234375,36.03759765625
-18.47265625,46.47265625,56.06201171875,39.93798828125
-27.87646484375,35.87646484375,46.07421875,29.92578125
-14.6455078125,46.6455078125,57.9453125,42.0546875
-13.06201171875,45.06201171875,43.6416015625,28.3583984375
-25.5009765625,29.5009765625,53.1796875,38.8203125
-16.28955078125,36.28955078125,52.61083984375,39.38916015625
-9.6142578125,41.6142578125,55.99169921875,44.00830078125
-5.48974609375,45.48974609375,41.34716796875,30.65283203125
-5.77587890625,45.77587890625,42.65673828125,33.34326171875
-8.23046875,44.23046875,51.88330078125,44.11669921875
-10.58203125,42.58203125,51.01318359375,44.98681640625
-16.591796875,36.591796875,52.1015625,47.8984375
-18.11962890625,34.11962890625,45.2509765625,42.7490234375
-7.18505859375,43.18505859375,40.58837890625,39.41162109375
-17.9765625,29.9765625,30.2412109375,29.7587890625
-14.79541015625,30.79541015625,30.30615234375,29.69384765625
-19.91064453125,23.91064453125,34.8251953125,33.1748046875
-1.4384765625,41.4384765625,35.7587890625,32.2412109375
-9.30029296875,33.30029296875,48.998046875,43.001953125
-17.314453125,25.314453125,42.38916015625,33.61083984375
-11.330078125,31.330078125,51.77197265625,40.22802734375
-19.3173828125,23.3173828125,50.98876953125,37.01123046875
-3.37060546875,39.37060546875,51.89794921875,36.10205078125
-9.6474609375,33.6474609375,38.3798828125,21.6201171875
-20.27685546875,24.27685546875,48.40283203125,31.59716796875
-3.291015625,43.291015625,44.06494140625,27.93505859375
-20.60693359375,28.60693359375,51.61474609375,36.38525390625
-12.06201171875,40.06201171875,41.40234375,26.59765625
-17.48291015625,37.48291015625,53.73681640625,38.26318359375
-24.73681640625,32.73681640625,58.73095703125,41.26904296875
-13.74267578125,45.74267578125,58.19921875,37.80078125
-16.46044921875,44.46044921875,59.6962890625,36.3037109375
-26.89404296875,34.89404296875,44.69970703125,19.30029296875
-15.10107421875,47.10107421875,46.8525390625,21.1474609375
-17.18505859375,45.18505859375,56.15380859375,31.84619140625
-21.25390625,41.25390625,46.974609375,25.025390625
-17.3828125,45.3828125,51.8955078125,32.1044921875
-25.595703125,37.595703125,51.4423828125,32.5576171875
-11.8662109375,51.8662109375,55.8515625,36.1484375
-22.09375,42.09375,55.00439453125,32.99560546875
-22.11669921875,42.11669921875,62.52734375,37.47265625
-23.77978515625,39.77978515625,44.01708984375,15.98291015625
-25.0341796875,37.0341796875,47.2109375,16.7890625
-13.9931640625,45.9931640625,62.0498046875,29.9501953125
-16.884765625,40.884765625,66.6044921875,33.3955078125
-19.92724609375,35.92724609375,60.97900390625,27.02099609375
-19.22265625,35.22265625,57.23193359375,22.76806640625
-16.72412109375,36.72412109375,57.35791015625,22.64208984375
-12.2841796875,40.2841796875,63.30810546875,28.69189453125
-15.77197265625,35.77197265625,49.01904296875,14.98095703125
-21.16650390625,29.16650390625,56.46728515625,23.53271484375
-20.59130859375,28.59130859375,59.7080078125,28.2919921875
-16.244140625,32.244140625,44.89453125,15.10546875
-4.26708984375,44.26708984375,64.23193359375,35.76806640625
-14.64990234375,34.64990234375,43.88671875,16.11328125
-5.21435546875,45.21435546875,63.890625,36.109375
-19.69189453125,31.69189453125,58.0986328125,29.9013671875
-9.81396484375,41.81396484375,46.248046875,17.751953125
-21.40283203125,29.40283203125,64.10009765625,35.89990234375
-14.43408203125,34.43408203125,53.60595703125,26.39404296875
-19.0703125,27.0703125,48.9580078125,23.0419921875
-15.64599609375,27.64599609375,56.49658203125,31.50341796875
-10.57568359375,30.57568359375,56.5,31.5
-16.2119140625,24.2119140625,47.03857421875,20.96142578125
-16.70458984375,24.70458984375,55.9609375,28.0390625
-5.91259765625,37.91259765625,50.99609375,21.00390625
-11.4169921875,35.4169921875,63.890625,32.109375
-12.64990234375,36.64990234375,64.49462890625,31.50537109375
-23.10986328125,27.10986328125,62.78076171875,29.21923828125
-20.5849609375,28.5849609375,48.80419921875,15.19580078125
-15.2822265625,31.2822265625,58.66357421875,25.33642578125
-11.77392578125,31.77392578125,64.43115234375,31.56884765625
-4.76513671875,36.76513671875,62.12255859375,29.87744140625
-18.77685546875,22.77685546875,59.68310546875,28.31689453125
-15.904296875,27.904296875,51.04833984375,20.95166015625
-13.7744140625,33.7744140625,54.22412109375,25.77587890625
-9.73779296875,41.73779296875,53.33984375,26.66015625
-19.1875,35.1875,54.6416015625,29.3583984375
-15.8212890625,39.8212890625,58.38134765625,33.61865234375
-17.71630859375,37.71630859375,52.65673828125,27.34326171875
-19.1845703125,35.1845703125,43.29736328125,16.70263671875
-14.56005859375,38.56005859375,45.890625,18.109375
-20.05517578125,32.05517578125,57.97314453125,30.02685546875
-23.75390625,27.75390625,43.2734375,16.7265625
-17.6806640625,33.6806640625,47.845703125,24.154296875
-15.83642578125,35.83642578125,40.03662109375,19.96337890625
-12.18408203125,40.18408203125,56.32568359375,39.67431640625
-16.60498046875,36.60498046875,37.12939453125,22.87060546875
-6.900390625,46.900390625,50.673828125,37.326171875
-24.85498046875,28.85498046875,38.9638671875,25.0361328125
-22.3505859375,30.3505859375,47.828125,32.171875
-13.4580078125,37.4580078125,44.990234375,27.009765625
-8.44921875,40.44921875,42.14892578125,21.85107421875
-5.70947265625,41.70947265625,55.0498046875,32.9501953125
-11.56884765625,35.56884765625,59.5166015625,36.4833984375
-12.15966796875,36.15966796875,47.4599609375,24.5400390625
-11.35546875,39.35546875,44.8740234375,23.1259765625
-20.81884765625,32.81884765625,49.837890625,30.162109375
-12.12841796875,44.12841796875,52.52978515625,35.47021484375
-10.91650390625,46.91650390625,41.2197265625,26.7802734375
-20.99462890625,36.99462890625,36.22802734375,23.77197265625
-24.421875,32.421875,43.84228515625,32.15771484375
-9.49365234375,45.49365234375,48.2216796875,35.7783203125
-24.62158203125,28.62158203125,49.3095703125,34.6904296875
-24.12939453125,28.12939453125,38.82666015625,21.17333984375
-10.091796875,42.091796875,60.35888671875,39.64111328125
-8.3017578125,44.3017578125,53.50732421875,30.49267578125
-20.396484375,32.396484375,52.05322265625,27.94677734375
-24.0751953125,28.0751953125,54.03515625,29.96484375
-19.2900390625,31.2900390625,41.70849609375,18.29150390625
-10.28369140625,38.28369140625,59.40380859375,36.59619140625
-7.4580078125,39.4580078125,61.34521484375,38.65478515625
-19.12646484375,27.12646484375,57.53955078125,34.46044921875
-19.337890625,27.337890625,51.8046875,28.1953125
-11.8740234375,35.8740234375,51.9130859375,28.0869140625
-10.421875,38.421875,61.75439453125,38.24560546875
-18.7705078125,30.7705078125,55.40478515625,32.59521484375
-12.896484375,36.896484375,47.0654296875,24.9345703125
-22.88916015625,26.88916015625,56.919921875,35.080078125
-20.84423828125,28.84423828125,41.02294921875,18.97705078125
-20.79248046875,28.79248046875,53.27294921875,30.72705078125
-14.71923828125,34.71923828125,61.45263671875,38.54736328125
-12.61767578125,36.61767578125,49.34033203125,26.65966796875
-10.529296875,38.529296875,54.8115234375,33.1884765625
-6.54345703125,42.54345703125,55.92041015625,36.07958984375
-16.7568359375,32.7568359375,54.88427734375,37.11572265625
-7.201171875,43.201171875,48.005859375,31.994140625
-23.79248046875,27.79248046875,43.53857421875,28.46142578125
-16.35205078125,36.35205078125,55.587890625,40.412109375
-12.68310546875,40.68310546875,58.072265625,41.927734375
-20.662109375,32.662109375,38.76904296875,21.23095703125
-20.27392578125,32.27392578125,43.42041015625,24.57958984375
-7.61328125,43.61328125,47.84423828125,28.15576171875
-16.85888671875,32.85888671875,57.97998046875,38.02001953125
-18.24658203125,30.24658203125,55.88134765625,36.11865234375
-11.97216796875,35.97216796875,43.65869140625,24.34130859375
-22.095703125,26.095703125,45.4111328125,26.5888671875
-6.484375,42.484375,49.18994140625,30.81005859375
-16.86181640625,32.86181640625,59.0126953125,40.9873046875
-10.921875,38.921875,54.87255859375,37.12744140625
-18.47119140625,30.47119140625,50.76611328125,33.23388671875
-11.52294921875,35.52294921875,44.68359375,27.31640625
-4.3330078125,40.3330078125,40.63623046875,23.36376953125
-19.32421875,23.32421875,48.6630859375,31.3369140625
-8.89111328125,32.89111328125,56.81689453125,39.18310546875
-19.17822265625,23.17822265625,49.13134765625,30.86865234375
-19.9755859375,23.9755859375,43.58447265625,24.41552734375
-18.82275390625,26.82275390625,48.0986328125,27.9013671875
-3.248046875,43.248046875,52.5576171875,31.4423828125
-21.00537109375,25.00537109375,46.83740234375,25.16259765625
-12.18701171875,32.18701171875,52.8291015625,31.1708984375
-13.18994140625,29.18994140625,58.4775390625,37.5224609375
-2.53466796875,38.53466796875,39.80859375,20.19140625
-2.6240234375,38.6240234375,52.94775390625,35.05224609375
-9.53662109375,33.53662109375,46.0732421875,29.9267578125
-2.98828125,42.98828125,45.3583984375,30.6416015625
-10.494140625,38.494140625,56.9287109375,43.0712890625
-15.646484375,35.646484375,52.86474609375,39.13525390625
-22.29541015625,30.29541015625,41.203125,26.796875
-12.55615234375,40.55615234375,57.9287109375,42.0712890625
-12.673828125,40.673828125,54.90576171875,37.09423828125
-20.857421875,32.857421875,59.86669921875,40.13330078125
-7.17626953125,47.17626953125,54.47119140625,33.52880859375
-7.55615234375,47.55615234375,42.451171875,21.548828125
-13.8564453125,41.8564453125,49.7607421875,30.2392578125
-7.97705078125,47.97705078125,58.63427734375,41.36572265625
-13.947265625,41.947265625,57.498046875,42.501953125
-9.9130859375,45.9130859375,54.7685546875,41.2314453125
-26.0322265625,30.0322265625,36.6494140625,23.3505859375
-14.3623046875,42.3623046875,37.0537109375,22.9462890625
-14.81201171875,42.81201171875,43.689453125,28.310546875
-27.1845703125,31.1845703125,40.23876953125,23.76123046875
-11.2509765625,47.2509765625,54.5126953125,37.4873046875
-24.84375,32.84375,46.52685546875,29.47314453125
-7.9375,47.9375,48.44384765625,31.55615234375
-10.70263671875,42.70263671875,58.4521484375,41.5478515625
-17.4609375,33.4609375,46.6494140625,29.3505859375
-10.5625,38.5625,44.99658203125,27.00341796875
-4.22314453125,44.22314453125,51.36572265625,32.63427734375
-18.435546875,30.435546875,45.625,26.375
-8.9775390625,40.9775390625,57.7548828125,38.2451171875
-19.51025390625,31.51025390625,59.8662109375,40.1337890625
-9.71875,41.71875,50.16015625,29.83984375
-5.46435546875,45.46435546875,44.8095703125,23.1904296875
-10.86865234375,38.86865234375,43.833984375,20.166015625
-22.27490234375,26.27490234375,61.03125,34.96875
-22.0576171875,26.0576171875,58.05078125,29.94921875
-20.41748046875,28.41748046875,50.5556640625,21.4443359375
-13.26806640625,37.26806640625,64.400390625,35.599609375
-20.294921875,32.294921875,49.701171875,22.298828125
-11.134765625,43.134765625,58.7734375,33.2265625
-17.55029296875,37.55029296875,53.9951171875,30.0048828125
-17.52587890625,37.52587890625,49.6611328125,26.3388671875
-25.2529296875,29.2529296875,43.88427734375,20.11572265625
-19.0126953125,35.0126953125,50.591796875,25.408203125
-15.0205078125,39.0205078125,47.58251953125,20.41748046875
-11.31494140625,43.31494140625,46.63330078125,17.36669921875
-25.7578125,29.7578125,65.5712890625,34.4287109375
-26.14794921875,30.14794921875,56.28515625,23.71484375
-16.3642578125,40.3642578125,64.7119140625,31.2880859375
-12.44921875,44.44921875,50.841796875,17.158203125
-24.57275390625,32.57275390625,62.740234375,29.259765625
-16.91748046875,40.91748046875,52.53662109375,19.46337890625
-21.564453125,37.564453125,64.3642578125,31.6357421875
-26.44775390625,34.44775390625,62.27587890625,29.72412109375
-21.39013671875,41.39013671875,58.21142578125,25.78857421875
-22.17578125,42.17578125,58.0458984375,25.9541015625
-18.6220703125,46.6220703125,61.65869140625,30.34130859375
-28.61962890625,36.61962890625,47.03271484375,16.96728515625
-14.1650390625,50.1650390625,46.2802734375,17.7197265625
-25.37060546875,37.37060546875,61.61767578125,34.38232421875
-12.4775390625,48.4775390625,53.24951171875,26.75048828125
-15.802734375,43.802734375,45.25244140625,18.74755859375
-17.625,41.625,59.515625,32.484375
-18.02880859375,42.02880859375,57.81298828125,30.18701171875
-16.83740234375,44.83740234375,53.93212890625,26.06787109375
-15.68310546875,47.68310546875,57.806640625,30.193359375
-12.1962890625,52.1962890625,55.53564453125,28.46435546875
-12.18017578125,52.18017578125,57.30712890625,30.69287109375
-11.70751953125,51.70751953125,47.2783203125,20.7216796875
-11.06396484375,51.06396484375,55.50244140625,28.49755859375
-26.60888671875,34.60888671875,63.9208984375,36.0791015625
-20.61572265625,40.61572265625,62.41552734375,33.58447265625
-17.1591796875,45.1591796875,48.873046875,19.126953125
-24.09423828125,40.09423828125,45.2197265625,14.7802734375
-27.13720703125,39.13720703125,59.41748046875,28.58251953125
-22.00439453125,46.00439453125,45.4345703125,14.5654296875
-28.53564453125,40.53564453125,61.2138671875,30.7861328125
-26.72607421875,42.72607421875,52.7099609375,23.2900390625
-18.67626953125,50.67626953125,43.93701171875,16.06298828125
-32.4814453125,36.4814453125,58.9892578125,33.0107421875
-22.1611328125,46.1611328125,60.00927734375,35.99072265625
-21.6513671875,45.6513671875,51.1318359375,28.8681640625
-12.88134765625,52.88134765625,56.4521484375,35.5478515625
-23.85595703125,39.85595703125,54.01416015625,33.98583984375
-12.693359375,48.693359375,39.82275390625,20.17724609375
-21.57568359375,37.57568359375,57.83447265625,38.16552734375
-20.66943359375,36.66943359375,51.96826171875,32.03173828125
-14.0673828125,42.0673828125,50.12451171875,29.87548828125
-19.78857421875,35.78857421875,50.23876953125,29.76123046875
-23.7802734375,31.7802734375,56.32470703125,35.67529296875
-13.8994140625,41.8994140625,46.45068359375,25.54931640625
-21.8955078125,33.8955078125,52.6826171875,31.3173828125
-17.47900390625,37.47900390625,53.02392578125,30.97607421875
-14.48681640625,38.48681640625,61.4189453125,38.5810546875
-15.02490234375,35.02490234375,57.7685546875,34.2314453125
-7.43994140625,39.43994140625,57.91552734375,34.08447265625
-4.0390625,40.0390625,61.6259765625,38.3740234375
-16.70263671875,24.70263671875,40.63916015625,19.36083984375
-12.642578125,24.642578125,50.8291015625,33.1708984375
5.48681640625,34.51318359375,48.34033203125,35.65966796875
1.13330078125,14.86669921875,39.62744140625,32.37255859375
23.36474609375,12.63525390625,33.28125,30.71875
32.68505859375,-12.68505859375,31.7314453125,32.2685546875
51.17236328125,-39.17236328125,44.96337890625,47.03662109375
76.75927734375,-68.75927734375,34.494140625,37.505859375
125.44482421875,-85.44482421875,27.66552734375,32.33447265625
155.31982421875,-131.31982421875,40.10009765625,47.89990234375
204.33642578125,-168.33642578125,37.966796875,50.033203125
235.84033203125,-231.84033203125,25.8818359375,42.1181640625
288.08837890625,-280.08837890625,40.51904296875,59.48095703125
346.14208984375,-322.14208984375,24.21044921875,43.78955078125
400.41259765625,-360.41259765625,38.810546875,57.189453125
437.73876953125,-401.73876953125,39.890625,56.109375
470.46875,-430.46875,25.08935546875,38.91064453125
475.00341796875,-471.00341796875,32.32373046875,43.67626953125
507.46728515625,-471.46728515625,27.74462890625,36.25537109375
522.71337890625,-482.71337890625,47.5087890625,52.4912109375
517.1376953125,-513.1376953125,43.57421875,44.42578125
543.9140625,-511.9140625,35.71142578125,32.28857421875
556.95751953125,-524.95751953125,53.70166015625,46.29833984375
557.4833984375,-549.4833984375,55.54931640625,44.45068359375
576.69189453125,-552.69189453125,39.5556640625,24.4443359375
586.1787109375,-562.1787109375,48.16015625,27.83984375
587.97509765625,-575.97509765625,63.65185546875,36.34814453125
598.3876953125,-578.3876953125,61.92529296875,26.07470703125
611.83251953125,-575.83251953125,64.42529296875,19.57470703125
608.7197265625,-588.7197265625,60.35498046875,7.64501953125
611.3271484375,-595.3271484375,79.03857421875,20.96142578125
613.66455078125,-601.66455078125,68.22119140625,7.77880859375
613.453125,-609.453125,68.1572265625,7.8427734375
626.32373046875,-602.32373046875,65.42919921875,6.57080078125
620.12744140625,-612.12744140625,70.650390625,13.349609375
637.07958984375,-597.07958984375,66.19287109375,9.80712890625
621.595703125,-613.595703125,74.07568359375,17.92431640625
629.9794921875,-605.9794921875,72.044921875,15.955078125
624.2333984375,-612.2333984375,57.81494140625,2.18505859375
628.06103515625,-608.06103515625,59.3095703125,4.6904296875
634.96875,-598.96875,58.72509765625,5.27490234375
622.38525390625,-606.38525390625,76.396484375,23.603515625
627.79248046875,-591.79248046875,60.5400390625,7.4599609375
608.865234375,-596.865234375,69.076171875,14.923828125
605.5478515625,-581.5478515625,67.6279296875,12.3720703125
596.0107421875,-568.0107421875,73.708984375,18.291015625
578.55224609375,-558.55224609375,62.96484375,9.03515625
563.5732421875,-543.5732421875,71.353515625,20.646484375
539.65185546875,-535.65185546875,57.15234375,10.84765625
537.5771484375,-505.5771484375,58.80810546875,17.19189453125
524.2099609375,-488.2099609375,64.7236328125,27.2763671875
504.177734375,-480.177734375,47.078125,12.921875
495.6181640625,-463.6181640625,55.78955078125,24.21044921875
478.1220703125,-458.1220703125,46.61962890625,17.38037109375
458.9052734375,-454.9052734375,47.36181640625,20.63818359375
449.10986328125,-441.10986328125,54.01123046875,29.98876953125
450.119140625,-414.119140625,44.78515625,23.21484375
427.767578125,-407.767578125,41.9912109375,22.0087890625
420.3564453125,-384.3564453125,49.814453125,30.185546875
400.48828125,-372.48828125,52.16455078125,31.83544921875
376.79296875,-364.79296875,54.66357421875,33.33642578125
369.72607421875,-341.72607421875,40.83203125,19.16796875
347.494140625,-335.494140625,46.3369140625,25.6630859375
348.06396484375,-308.06396484375,53.1904296875,34.8095703125
323.20751953125,-307.20751953125,51.78466796875,36.21533203125
312.55029296875,-292.55029296875,36.69580078125,23.30419921875
291.66650390625,-287.66650390625,40.40966796875,27.59033203125
284.21484375,-268.21484375,47.08251953125,32.91748046875
268.04638671875,-256.04638671875,54.4619140625,37.5380859375
249.2177734375,-245.2177734375,54.02734375,33.97265625
249.9423828125,-213.9423828125,41.22802734375,18.77197265625
226.529296875,-206.529296875,51.7275390625,28.2724609375
211.3291015625,-191.3291015625,57.50634765625,34.49365234375
204.67626953125,-168.67626953125,40.83251953125,19.16748046875
182.82177734375,-162.82177734375,46.11572265625,25.88427734375
177.89404296875,-141.89404296875,45.71435546875,26.28564453125
167.90087890625,-127.90087890625,41.796875,22.203125
156.771484375,-116.771484375,56.3125,35.6875
128.38671875,-124.38671875,43.076171875,20.923828125
122.58740234375,-110.58740234375,51.89404296875,28.10595703125
121.203125,-93.203125,42.6435546875,17.3564453125
106.10498046875,-90.10498046875,59.26806640625,32.73193359375
107.27490234375,-71.27490234375,43.7236328125,16.2763671875
94.830078125,-66.830078125,51.953125,24.046875
90.99462890625,-54.99462890625,47.8916015625,20.1083984375
72.013671875,-60.013671875,57.5078125,30.4921875
72.0595703125,-48.0595703125,50.8291015625,25.1708984375
59.1572265625,-51.1572265625,53.9560546875,30.0439453125
69.15380859375,-33.15380859375,49.0263671875,26.9736328125
65.755859375,-29.755859375,50.17041015625,29.82958984375
46.61328125,-42.61328125,49.462890625,30.537109375
43.4287109375,-39.4287109375,48.8984375,31.1015625
46.06640625,-30.06640625,44.4287109375,27.5712890625
38.607421875,-30.607421875,42.0087890625,25.9912109375
43.3203125,-19.3203125,53.64111328125,38.35888671875
32.53955078125,-24.53955078125,55.37646484375,40.62353515625
44.50048828125,-8.50048828125,47.30078125,32.69921875
45.21630859375,-5.21630859375,37.49951171875,22.50048828125
38.4638671875,-10.4638671875,46.0107421875,29.9892578125
29.873046875,-17.873046875,38.79052734375,21.20947265625
43.05908203125,-3.05908203125,43.705078125,24.294921875
27.748046875,-15.748046875,48.5732421875,27.4267578125
27.8681640625,-11.8681640625,51.23486328125,28.76513671875
31.568359375,-3.568359375,57.62744140625,34.37255859375
35.1552734375,4.8447265625,43.794921875,20.205078125
32.96533203125,7.03466796875,53.8681640625,30.1318359375
19.2392578125,-3.2392578125,49.982421875,26.017578125
14.0615234375,-6.0615234375,44.20751953125,19.79248046875
29.36572265625,10.63427734375,58.517578125,33.482421875
28.97900390625,11.02099609375,42.822265625,17.177734375
20.65380859375,3.34619140625,63.013671875,36.986328125
24.15185546875,7.84814453125,43.0390625,16.9609375
25.34033203125,10.65966796875,58.93310546875,33.06689453125
16.27392578125,3.72607421875,46.80126953125,21.19873046875
15.16748046875,4.83251953125,60.74951171875,35.25048828125
10.26171875,1.73828125,56.8017578125,31.1982421875
9.6845703125,2.3154296875,62.87158203125,37.12841796875
19.38818359375,12.61181640625,58.8369140625,33.1630859375
21.20361328125,14.79638671875,54.638671875,29.361328125
12.96630859375,7.03369140625,52.33349609375,27.66650390625
10.61767578125,5.38232421875,52.02099609375,27.97900390625
20.24072265625,15.75927734375,55.71240234375,32.28759765625
4.001953125,-0.001953125,51.25,28.75
22.0205078125,17.9794921875,42.37060546875,21.62939453125
4.2333984375,-0.2333984375,44.8974609375,27.1025390625
4.36962890625,-0.36962890625,48.90380859375,35.09619140625
6.06201171875,1.93798828125,34.74609375,25.25390625
15.05322265625,12.94677734375,48.90869140625,43.09130859375
5.341796875,6.658203125,51.783203125,48.216796875
-0.8115234375,4.8115234375,39.49853515625,36.50146484375
15.00830078125,24.99169921875,39.90673828125,36.09326171875
-2.78173828125,10.78173828125,32.7099609375,27.2900390625
-5.888671875,9.888671875,45.64208984375,38.35791015625
9.763671875,26.236328125,40.54931640625,31.45068359375
6.01318359375,21.98681640625,43.38525390625,32.61474609375
2.50927734375,17.49072265625,36.13623046875,23.86376953125
6.84423828125,21.15576171875,42.7744140625,29.2255859375
-5.30224609375,9.30224609375,37.25048828125,22.74951171875
7.9677734375,24.0322265625,55.51708984375,40.48291015625
2.8173828125,21.1826171875,47.544921875,32.455078125
1.63671875,22.36328125,55.3271484375,40.6728515625
8.89794921875,31.10205078125,42.8974609375,29.1025390625
-3.0498046875,19.0498046875,36.34619140625,23.65380859375
5.85546875,26.14453125,43.81103515625,32.18896484375
-6.64208984375,10.64208984375,53.42919921875,42.57080078125
13.0048828125,26.9951171875,55.29150390625,44.70849609375
-1.66015625,9.66015625,41.40478515625,30.59521484375
1.06494140625,10.93505859375,55.6982421875,44.3017578125
1.1142578125,10.8857421875,44.041015625,31.958984375
10.62109375,21.37890625,50.28369140625,37.71630859375
-2.1923828125,10.1923828125,38.32421875,25.67578125
8.88818359375,23.11181640625,50.16748046875,37.83251953125
2.01904296875,17.98095703125,53.93310546875,42.06689453125
7.3232421875,24.6767578125,37.7900390625,26.2099609375
8.919921875,27.080078125,43.84130859375,32.15869140625
-5.11962890625,13.11962890625,38.0166015625,25.9833984375
1.1416015625,18.8583984375,56.08935546875,43.91064453125
-2.53125,14.53125,53.80078125,42.19921875
1.55859375,18.44140625,51.04345703125,40.95654296875
11.20849609375,28.79150390625,37.97412109375,30.02587890625
2.4375,21.5625,36.9794921875,31.0205078125
-2.54150390625,18.54150390625,48.486328125,43.513671875
2.56103515625,25.43896484375,50.72314453125,45.27685546875
-10.03662109375,14.03662109375,41.57763671875,34.42236328125
-8.2607421875,16.2607421875,42.6435546875,33.3564453125
7.8095703125,32.1904296875,39.4296875,28.5703125
-3.98095703125,19.98095703125,55.59912109375,44.40087890625
4.22998046875,27.77001953125,39.13818359375,28.86181640625
6.37255859375,29.62744140625,44.33447265625,35.66552734375
-3.5576171875,19.5576171875,39.6328125,32.3671875
4.4873046875,27.5126953125,47.42919921875,40.57080078125
0.60009765625,23.39990234375,43.91015625,36.08984375
4.9013671875,27.0986328125,54.9912109375,45.0087890625
5.455078125,26.544921875,40.36669921875,27.63330078125
8.16015625,27.83984375,45.6357421875,30.3642578125
-7.2802734375,11.2802734375,46.4365234375,29.5634765625
6.76416015625,25.23583984375,58.548828125,41.451171875
-1.939453125,17.939453125,41.95361328125,26.04638671875
-9.31689453125,13.31689453125,52.83251953125,39.16748046875
-4.9990234375,20.9990234375,45.5068359375,34.4931640625
-2.4951171875,26.4951171875,36.32421875,27.67578125
-13.4208984375,17.4208984375,53.52978515625,46.47021484375
2.33984375,33.66015625,53.16845703125,46.83154296875
0.6123046875,31.3876953125,47.078125,40.921875
-2.962890625,26.962890625,46.97265625,41.02734375
-0.7490234375,28.7490234375,38.58740234375,33.41259765625
5.0419921875,34.9580078125,43.8251953125,40.1748046875
-1.59228515625,29.59228515625,50.810546875,49.189453125
-2.49365234375,30.49365234375,45.82666015625,46.17333984375
2.55419921875,37.44580078125,49.17333984375,50.82666015625
-0.24365234375,36.24365234375,29.01904296875,30.98095703125
-12.74462890625,24.74462890625,29.3447265625,30.6552734375
-10.890625,26.890625,43.98291015625,44.01708984375
-0.73095703125,36.73095703125,36.68212890625,35.31787109375
-10.38671875,26.38671875,51.18017578125,48.81982421875
2.0166015625,37.9833984375,39.2646484375,36.7353515625
-9.59619140625,25.59619140625,42.84375,41.15625
-11.24951171875,23.24951171875,43.99169921875,44.00830078125
-14.95947265625,18.95947265625,44.9609375,47.0390625
3.23388671875,36.76611328125,48.087890625,51.912109375
-4.734375,28.734375,43.67724609375,48.32275390625
-8.92041015625,24.92041015625,47.86328125,52.13671875
-7.33544921875,27.33544921875,32.53759765625,35.46240234375
-13.9140625,21.9140625,49.35595703125,50.64404296875
-8.50830078125,28.50830078125,39.900390625,40.099609375
-0.9326171875,36.9326171875,33.89208984375,34.10791015625
-3.0419921875,35.0419921875,43.35595703125,44.64404296875
1.2041015625,38.7958984375,48.58447265625,51.41552734375
-8.26171875,28.26171875,41.9423828125,46.0576171875
-3.56201171875,31.56201171875,47.63134765625,52.36865234375
-14.8271484375,18.8271484375,29.5791015625,34.4208984375
1.83203125,34.16796875,31.52587890625,36.47412109375
4.33642578125,35.66357421875,47.224609375,52.775390625
-7.345703125,23.345703125,44.61083984375,51.38916015625
0.806640625,31.193359375,45.84765625,54.15234375
2.83056640625,33.16943359375,29.2177734375,38.7822265625
-7.2744140625,23.2744140625,36.94580078125,47.05419921875
-3.55810546875,27.55810546875,35.0625,44.9375
-10.06005859375,22.06005859375,43.38720703125,52.61279296875
-4.72705078125,28.72705078125,35.63916015625,44.36083984375
-7.39453125,27.39453125,33.61572265625,42.38427734375
-3.84765625,31.84765625,35.3037109375,44.6962890625
-5.91943359375,29.91943359375,30.86474609375,41.13525390625
-5.56103515625,29.56103515625,38.5625,49.4375
1.140625,34.859375,30.6357421875,41.3642578125
3.9833984375,36.0166015625,43.20751953125,52.79248046875
-3.2880859375,27.2880859375,34.2353515625,41.7646484375
-8.8974609375,20.8974609375,45.5302734375,50.4697265625
-12.96875,16.96875,28.82177734375,31.17822265625
-7.49365234375,23.49365234375,47.8544921875,48.1455078125
-12.3466796875,20.3466796875,32.46533203125,31.53466796875
-11.32421875,23.32421875,32.609375,31.390625
-10.20263671875,26.20263671875,50.3662109375,49.6337890625
1.185546875,38.814453125,47.9033203125,48.0966796875
-17.09912109375,21.09912109375,35.44287109375,36.55712890625
-17.10009765625,21.10009765625,29.1826171875,30.8173828125
-12.89306640625,24.89306640625,35.22021484375,36.77978515625
-10.517578125,26.517578125,33.51318359375,34.48681640625
0.01220703125,35.98779296875,33.9130859375,34.0869140625
-5.35986328125,29.35986328125,40.24169921875,39.75830078125
-10.76708984375,22.76708984375,50.37841796875,49.62158203125
3.63818359375,36.36181640625,30.29833984375,29.70166015625
-4.208984375,28.208984375,42.0986328125,41.9013671875
-6.24853515625,26.24853515625,47.96923828125,48.03076171875
-2.365234375,30.365234375,44.1337890625,43.8662109375
-0.5048828125,32.5048828125,46.75732421875,45.24267578125
-4.7275390625,28.7275390625,43.828125,40.171875
-11.15380859375,23.15380859375,45.11083984375,38.88916015625
-15.837890625,19.837890625,44.1943359375,35.8056640625
-8.67138671875,28.67138671875,52.64306640625,43.35693359375
-17.39599609375,21.39599609375,38.17822265625,29.82177734375
-11.7373046875,27.7373046875,44.81396484375,39.18603515625
-3.57177734375,35.57177734375,34.8759765625,33.1240234375
-5.017578125,33.017578125,42.8798828125,45.1201171875
-10.38623046875,26.38623046875,33.328125,38.671875
1.98046875,38.01953125,28.50341796875,35.49658203125
-2.12451171875,34.12451171875,34.37646484375,41.62353515625
-12.6982421875,24.6982421875,26.646484375,33.353515625
-5.56201171875,33.56201171875,38.8896484375,45.1103515625
-0.4560546875,40.4560546875,42.74365234375,49.25634765625
-15.1513671875,27.1513671875,34.0673828125,41.9326171875
-7.5390625,35.5390625,26.9853515625,37.0146484375
-13.66650390625,29.66650390625,31.82958984375,44.17041015625
-9.6943359375,33.6943359375,26.970703125,41.029296875
-7.79931640625,35.79931640625,40.67041015625,55.32958984375
-2.07470703125,42.07470703125,40.99267578125,55.00732421875
-10.47314453125,34.47314453125,35.81884765625,48.18115234375
-14.8525390625,30.8525390625,40.90185546875,51.09814453125
-3.06787109375,43.06787109375,25.94189453125,34.05810546875
-13.0771484375,33.0771484375,30.67333984375,37.32666015625
-20.978515625,24.978515625,28.95263671875,35.04736328125
-4.9609375,40.9609375,46.826171875,53.173828125
-11.2041015625,35.2041015625,32.5224609375,39.4775390625
-3.77783203125,43.77783203125,46.35205078125,53.64794921875
-20.60595703125,28.60595703125,30.5615234375,37.4384765625
-13.50537109375,37.50537109375,41.20361328125,46.79638671875
-14.28759765625,38.28759765625,42.10546875,45.89453125
-22.85888671875,30.85888671875,38.95556640625,41.04443359375
-17.2705078125,37.2705078125,29.46484375,30.53515625
-13.68603515625,41.68603515625,29.5185546875,30.4814453125
-10.29541015625,46.29541015625,29.2060546875,30.7939453125
-21.17822265625,37.17822265625,44.73291015625,47.26708984375
-26.2099609375,34.2099609375,34.27001953125,37.72998046875
-11.06201171875,51.06201171875,37.8544921875,42.1455078125
-13.3388671875,49.3388671875,39.40234375,44.59765625
-14.7666015625,46.7666015625,30.79296875,37.20703125
-27.3388671875,31.3388671875,31.99755859375,40.00244140625
-25.326171875,29.326171875,29.14697265625,38.85302734375
-9.189453125,41.189453125,34.51708984375,45.48291015625
-19.4169921875,27.4169921875,26.431640625,37.568359375
-16.365234375,28.365234375,29.115234375,38.884765625
-10.125,34.125,44.56103515625,51.43896484375
-6.48193359375,38.48193359375,46.49462890625,49.50537109375
-4.99365234375,40.99365234375,30.45263671875,29.54736328125
-21.1689453125,25.1689453125,49.96142578125,46.03857421875
-4.6640625,40.6640625,50.70068359375,45.29931640625
-11.42431640625,31.42431640625,44.6142578125,39.3857421875
-7.7236328125,31.7236328125,39.89013671875,36.10986328125
1.93896484375,38.06103515625,44.87255859375,43.12744140625
1.05322265625,34.94677734375,45.9365234375,46.0634765625
-6.66064453125,26.66064453125,31.36083984375,32.63916015625
-11.1318359375,23.1318359375,49.25830078125,50.74169921875
1.982421875,38.017578125,31.57275390625,32.42724609375
1.06591796875,38.93408203125,34.14111328125,33.85888671875
-13.66455078125,25.66455078125,36.7900390625,35.2099609375
-4.21728515625,36.21728515625,31.41650390625,28.58349609375
-4.7236328125,36.7236328125,52.01318359375,47.98681640625
-19.28857421875,23.28857421875,32.6337890625,27.3662109375
-7.9033203125,35.9033203125,47.31787109375,40.68212890625
-12.4482421875,32.4482421875,48.03662109375,39.96337890625
-6.7763671875,38.7763671875,50.68408203125,41.31591796875
-2.81005859375,42.81005859375,53.1318359375,42.8681640625
-16.595703125,28.595703125,55.29931640625,44.70068359375
-14.2705078125,30.2705078125,49.19677734375,38.80322265625
-17.986328125,25.986328125,36.90869140625,27.09130859375
-17.83837890625,25.83837890625,42.544921875,33.455078125
-15.8662109375,27.8662109375,54.216796875,45.783203125
-20.07177734375,24.07177734375,48.025390625,39.974609375
-18.40478515625,26.40478515625,42.06494140625,33.93505859375
-20.7314453125,24.7314453125,42.3916015625,33.6083984375
-14.85107421875,30.85107421875,34.982421875,25.017578125
-2.580078125,42.580078125,41.70556640625,30.29443359375
-19.86279296875,23.86279296875,54.35009765625,41.64990234375
-16.81787109375,24.81787109375,52.69677734375,39.30322265625
-11.712890625,27.712890625,46.5966796875,33.4033203125
-6.873046875,30.873046875,36.0234375,23.9765625
-4.568359375,32.568359375,35.07373046875,24.92626953125
-2.91064453125,34.91064453125,39.92724609375,32.07275390625
-15.77734375,23.77734375,40.7900390625,35.2099609375
-16.84619140625,24.84619140625,33.83935546875,30.16064453125
-19.7265625,23.7265625,33.19921875,30.80078125
-14.13232421875,30.13232421875,46.9228515625,45.0771484375
-2.005859375,42.005859375,44.9873046875,43.0126953125
-3.50439453125,39.50439453125,47.298828125,44.701171875
-16.89013671875,24.89013671875,45.7255859375,42.2744140625
-16.37939453125,24.37939453125,50.14208984375,45.85791015625
-16.0400390625,24.0400390625,34.45458984375,29.54541015625
-3.7802734375,35.7802734375,46.611328125,41.388671875
-9.45849609375,29.45849609375,42.58642578125,37.41357421875
-17.02294921875,21.02294921875,42.3837890625,37.6162109375
-12.59765625,24.59765625,32.052734375,27.947265625
-12.416015625,24.416015625,51.67333984375,48.32666015625
-0.65869140625,36.65869140625,41.31982421875,38.68017578125
-11.3271484375,27.3271484375,31.04248046875,28.95751953125
-8.23193359375,32.23193359375,38.83837890625,37.16162109375
-1.0888671875,41.0888671875,40.69091796875,39.30908203125
-9.6513671875,33.6513671875,36.6025390625,35.3974609375
-5.7978515625,37.7978515625,38.63427734375,37.36572265625
-5.56982421875,37.56982421875,48.89208984375,47.10791015625
-3.15673828125,39.15673828125,47.48681640625,44.51318359375
-6.837890625,34.837890625,44.435546875,39.564453125
-6.88671875,34.88671875,41.5908203125,34.4091796875
-7.4697265625,35.4697265625,46.6591796875,37.3408203125
-14.59765625,30.59765625,37.29638671875,26.70361328125
-18.11279296875,30.11279296875,37.27099609375,26.72900390625
-23.72119140625,27.72119140625,40.57080078125,31.42919921875
-21.07373046875,33.07373046875,39.419921875,32.580078125
-11.89892578125,43.89892578125,42.173828125,37.826171875
-20.111328125,36.111328125,37.16796875,34.83203125
-7.85693359375,47.85693359375,46.58349609375,45.41650390625
-21.435546875,33.435546875,46.4208984375,45.5791015625
-17.15869140625,37.15869140625,36.55908203125,35.44091796875
-15.2138671875,39.2138671875,36.8642578125,35.1357421875
-15.615234375,39.615234375,39.25244140625,36.74755859375
-22.22900390625,34.22900390625,45.6796875,42.3203125
-8.8486328125,48.8486328125,52.0908203125,47.9091796875
-21.27880859375,37.27880859375,44.41015625,39.58984375
-9.41162109375,49.41162109375,50.580078125,45.419921875
-15.240234375,43.240234375,50.6044921875,45.3955078125
-26.8232421875,30.8232421875,48.572265625,43.427734375
-24.23291015625,32.23291015625,32.58349609375,27.41650390625
-23.541015625,31.541015625,36.68359375,31.31640625
-24.822265625,28.822265625,34.82373046875,29.17626953125
-20.16748046875,32.16748046875,36.896484375,31.103515625
-21.6748046875,29.6748046875,38.822265625,33.177734375
-11.431640625,39.431640625,34.6357421875,29.3642578125
-19.4833984375,31.4833984375,50.49560546875,45.50439453125
-23.802734375,27.802734375,32.630859375,27.369140625
-10.27783203125,42.27783203125,53.2314453125,46.7685546875
-6.73974609375,46.73974609375,46.34033203125,37.65966796875
-13.02099609375,41.02099609375,45.8076171875,34.1923828125
-9.0146484375,45.0146484375,53.34228515625,38.65771484375
-16.69873046875,36.69873046875,54.630859375,37.369140625
-8.1298828125,44.1298828125,45.44677734375,26.55322265625
-7.416015625,43.416015625,53.71728515625,34.28271484375
-18.68017578125,30.68017578125,59.52587890625,40.47412109375
-16.03466796875,32.03466796875,59.052734375,40.947265625
-5.5498046875,41.5498046875,38.486328125,21.513671875
-9.24609375,37.24609375,41.958984375,26.041015625
-3.1123046875,43.1123046875,57.52001953125,42.47998046875
-3.134765625,43.134765625,45.189453125,30.810546875
-17.2978515625,29.2978515625,42.998046875,29.001953125
-21.55908203125,25.55908203125,46.9990234375,33.0009765625
-9.83642578125,37.83642578125,49.23388671875,34.76611328125
-18.0205078125,30.0205078125,45.6796875,30.3203125
-20.02099609375,28.02099609375,46.2353515625,29.7646484375
-5.8037109375,41.8037109375,46.73046875,29.26953125
-11.4267578125,35.4267578125,48.98046875,31.01953125
-3.02783203125,43.02783203125,42.85009765625,25.14990234375
-16.7705078125,28.7705078125,58.2841796875,41.7158203125
-12.7607421875,32.7607421875,55.32861328125,40.67138671875
-8.99072265625,36.99072265625,42.1259765625,29.8740234375
-17.35986328125,29.35986328125,44.9111328125,35.0888671875
-17.74267578125,29.74267578125,51.9765625,44.0234375
-16.06982421875,32.06982421875,33.576171875,26.423828125
-6.3408203125,42.3408203125,39.818359375,32.181640625
-4.60107421875,44.60107421875,34.599609375,25.400390625
-6.89794921875,42.89794921875,55.63916015625,44.36083984375
-23.2421875,27.2421875,52.59814453125,39.40185546875
-19.58203125,31.58203125,51.220703125,36.779296875
-13.79443359375,37.79443359375,39.41162109375,24.58837890625
-5.73046875,45.73046875,55.23681640625,40.76318359375
-7.3251953125,43.3251953125,36.849609375,23.150390625
-12.68701171875,36.68701171875,46.3916015625,33.6083984375
-12.09130859375,36.09130859375,49.91845703125,38.08154296875
-11.865234375,35.865234375,55.3935546875,44.6064453125
-14.23828125,34.23828125,36.74658203125,27.25341796875
-23.23583984375,27.23583984375,37.94677734375,30.05322265625
-10.66943359375,42.66943359375,47.0546875,40.9453125
-14.19677734375,42.19677734375,42.216796875,37.783203125
-19.44091796875,39.44091796875,35.61572265625,32.38427734375
-16.125,44.125,39.4072265625,36.5927734375
-10.17333984375,50.17333984375,43.66259765625,40.33740234375
-21.72900390625,37.72900390625,48.32470703125,43.67529296875
-25.06640625,33.06640625,39.2001953125,32.7998046875
-12.48828125,44.48828125,48.0244140625,39.9755859375
-26.22314453125,30.22314453125,40.5625,31.4375
-10.37353515625,46.37353515625,54.69287109375,45.30712890625
-26.91064453125,30.91064453125,40.435546875,31.564453125
-27.68701171875,31.68701171875,35.93017578125,28.06982421875
-22.5078125,38.5078125,53.37109375,46.62890625
-23.201171875,39.201171875,48.92578125,43.07421875
-11.67333984375,51.67333984375,48.6533203125,43.3466796875
-19.9150390625,43.9150390625,32.4755859375,27.5244140625
-23.96435546875,39.96435546875,38.236328125,33.763671875
-15.8759765625,47.8759765625,45.80322265625,42.19677734375
-17.70849609375,45.70849609375,37.1640625,34.8359375
-19.51513671875,43.51513671875,36.44189453125,35.55810546875
-11.33642578125,51.33642578125,41.82080078125,42.17919921875
-25.18017578125,37.18017578125,33.4375,34.5625
-19.03564453125,43.03564453125,37.30615234375,38.69384765625
-18.89501953125,42.89501953125,47.306640625,48.693359375
-24.7626953125,36.7626953125,39.2646484375,40.7353515625
-24.638671875,36.638671875,29.0556640625,30.9443359375
-12.52099609375,48.52099609375,28.7021484375,31.2978515625
-14.4287109375,46.4287109375,36.39111328125,39.60888671875
-20.4228515625,40.4228515625,38.3974609375,41.6025390625
-16.591796875,44.591796875,30.958984375,33.041015625
-14.9951171875,46.9951171875,36.13525390625,35.86474609375
-23.615234375,39.615234375,31.72607421875,28.27392578125
-20.35107421875,44.35107421875,53.3310546875,46.6689453125
-25.0458984375,41.0458984375,44.4912109375,35.5087890625
-21.55126953125,45.55126953125,40.8779296875,31.1220703125
-15.77880859375,51.77880859375,34.423828125,25.576171875
-13.75048828125,53.75048828125,37.34033203125,30.65966796875
-27.5888671875,39.5888671875,46.00830078125,41.99169921875
-21.46337890625,45.46337890625,46.79736328125,45.20263671875
-15.49609375,51.49609375,43.91943359375,44.08056640625
-21.70703125,45.70703125,31.4052734375,32.5947265625
-16.00341796875,52.00341796875,41.17333984375,42.82666015625
-22.240234375,46.240234375,31.14697265625,32.85302734375
-24.287109375,44.287109375,49.31689453125,50.68310546875
-32.10693359375,36.10693359375,47.7265625,48.2734375
-15.78564453125,51.78564453125,42.39013671875,41.60986328125
-21.50732421875,45.50732421875,33.21435546875,30.78564453125
-27.46728515625,39.46728515625,42.01318359375,37.98681640625
-19.7734375,47.7734375,50.5927734375,45.4072265625
-22.36962890625,46.36962890625,52.876953125,47.123046875
-21.06591796875,49.06591796875,46.93359375,41.06640625
-27.61962890625,43.61962890625,42.908203125,37.091796875
-21.86376953125,49.86376953125,50.89794921875,45.10205078125
-33.78466796875,37.78466796875,32.888671875,27.111328125
-19.52392578125,51.52392578125,40.78173828125,35.21826171875
-23.27783203125,47.27783203125,50.501953125,45.498046875
-19.1640625,51.1640625,52.0703125,47.9296875
-27.13037109375,43.13037109375,51.61474609375,48.38525390625
-30.99853515625,38.99853515625,35.31201171875,32.68798828125
-20.60498046875,48.60498046875,49.291015625,46.708984375
-29.94482421875,37.94482421875,51.544921875,48.455078125
-15.2275390625,51.2275390625,43.91064453125,40.08935546875
-24.7919921875,40.7919921875,50.1611328125,45.8388671875
-28.93994140625,36.93994140625,48.1220703125,43.8779296875
-19.76953125,47.76953125,49.7822265625,46.2177734375
-31.09716796875,39.09716796875,43.29931640625,40.70068359375
-20.5244140625,52.5244140625,46.9453125,45.0546875
-25.63134765625,49.63134765625,42.97265625,41.02734375
-30.1767578125,46.1767578125,37.49609375,34.50390625
-22.2080078125,54.2080078125,50.41943359375,45.58056640625
-25.98974609375,49.98974609375,35.46142578125,28.53857421875
-31.7998046875,43.7998046875,50.28564453125,41.71435546875
-25.71435546875,49.71435546875,42.62109375,33.37890625
-29.51318359375,45.51318359375,42.30078125,33.69921875
-34.77685546875,38.77685546875,49.13525390625,42.86474609375
-19.08935546875,51.08935546875,48.77587890625,47.22412109375
-30.20166015625,34.20166015625,36.64892578125,43.35107421875
-24.06298828125,32.06298828125,38.0625,57.9375
-18.72021484375,26.72021484375,18.4248046875,57.5751953125
-4.20654296875,28.20654296875,5.48046875,70.51953125
-0.54248046875,16.54248046875,-8.53857421875,88.53857421875
2.115234375,1.884765625,-22.841796875,110.841796875
13.32373046875,-5.32373046875,-52.19482421875,120.19482421875
26.34521484375,-10.34521484375,-57.13623046875,153.13623046875
32.33203125,-20.33203125,-88.28466796875,156.28466796875
46.57666015625,-18.57666015625,-100.57470703125,172.57470703125
54.6640625,-18.6640625,-113.39501953125,181.39501953125
50.49462890625,-26.49462890625,-104.60009765625,204.60009765625
46.2138671875,-30.2138671875,-116.43798828125,200.43798828125
42.15625,-30.15625,-117.45263671875,201.45263671875
52.8095703125,-12.8095703125,-108.39501953125,208.39501953125
36.78662109375,-20.78662109375,-114.1416015625,198.1416015625
38.74951171875,-10.74951171875,-111.57861328125,195.57861328125
41.27587890625,-1.27587890625,-113.45263671875,189.45263671875
28.7197265625,-8.7197265625,-118.18505859375,182.18505859375
33.12060546875,-1.12060546875,-119.77490234375,179.77490234375
20.2099609375,-12.2099609375,-99.87060546875,199.87060546875
27.54443359375,-3.54443359375,-120.01123046875,180.01123046875
30.68701171875,1.31298828125,-107.88671875,191.88671875
21.36767578125,-5.36767578125,-119.484375,179.484375
13.560546875,-9.560546875,-119.0283203125,179.0283203125
13.45166015625,-5.45166015625,-102.80419921875,194.80419921875
11.34765625,-3.34765625,-102.98876953125,194.98876953125
9.53955078125,-1.53955078125,-109.5732421875,189.5732421875
16.19287109375,7.80712890625,-112.4150390625,188.4150390625
13.28857421875,6.71142578125,-109.33544921875,193.33544921875
12.66650390625,7.33349609375,-104.201171875,200.201171875
22.1279296875,17.8720703125,-120.95947265625,184.95947265625
3.54443359375,0.45556640625,-103.6171875,203.6171875
2.89306640625,1.10693359375,-118.18896484375,190.18896484375
2.23779296875,1.76220703125,-116.66259765625,192.66259765625
9.6826171875,10.3173828125,-123.005859375,187.005859375
11.31884765625,12.68115234375,-123.1953125,187.1953125
3.17919921875,4.82080078125,-109.25732421875,201.25732421875
3.20458984375,4.79541015625,-109.26513671875,201.26513671875
9.2744140625,10.7255859375,-121.27294921875,189.27294921875
19.287109375,20.712890625,-111.25244140625,199.25244140625
11.2431640625,12.7568359375,-109.07763671875,201.07763671875
13.26904296875,14.73095703125,-122.591796875,186.591796875
17.54736328125,18.45263671875,-105.75,201.75
12.2099609375,11.7900390625,-114.70263671875,190.70263671875
7.23388671875,4.76611328125,-119.767578125,183.767578125
6.41943359375,1.58056640625,-101.24951171875,201.24951171875
5.4453125,-1.4453125,-103.2353515625,199.2353515625
22.00634765625,13.99365234375,-107.50732421875,195.50732421875
17.96728515625,10.03271484375,-111.64599609375,191.64599609375
5.43994140625,-1.43994140625,-103.25634765625,199.25634765625
12.724609375,7.275390625,-100.22119140625,200.22119140625
6.14013671875,1.85986328125,-104.78759765625,192.78759765625
15.84619140625,12.15380859375,-99.47412109375,195.47412109375
17.78173828125,14.21826171875,-100.80908203125,192.80908203125
3.7412109375,0.2587890625,-99.0625,195.0625
15.5234375,12.4765625,-108.1162109375,188.1162109375
7.07275390625,4.92724609375,-111.51806640625,187.51806640625
12.509765625,11.490234375,-108.72802734375,192.72802734375
16.033203125,15.966796875,-117.39697265625,185.39697265625
17.779296875,18.220703125,-119.57373046875,183.57373046875
5.7412109375,6.2587890625,-117.68310546875,185.68310546875
7.80517578125,8.19482421875,-120.31201171875,184.31201171875
19.86083984375,20.13916015625,-107.892578125,199.892578125
3.87646484375,4.12353515625,-124.4560546875,188.4560546875
7.89599609375,8.10400390625,-111.5712890625,207.5712890625
19.994140625,20.005859375,-126.52685546875,198.52685546875
16.220703125,15.779296875,-118.6181640625,210.6181640625
4.56689453125,3.43310546875,-115.4345703125,215.4345703125
18.95263671875,17.04736328125,-131.00634765625,199.00634765625
7.23828125,4.76171875,-113.76318359375,213.76318359375
7.28466796875,4.71533203125,-114.3310546875,210.3310546875
15.0400390625,12.9599609375,-113.27685546875,209.27685546875
14.61328125,13.38671875,-130.892578125,190.892578125
18.24560546875,17.75439453125,-129.13330078125,193.13330078125
2.1806640625,1.8193359375,-121.69921875,201.69921875
20.509765625,19.490234375,-126.21923828125,198.21923828125
7.115234375,4.884765625,-124.43505859375,200.43505859375
7.75048828125,4.24951171875,-114.267578125,210.267578125
10.1962890625,5.8037109375,-127.80810546875,195.80810546875
18.37646484375,13.62353515625,-121.21728515625,201.21728515625
6.38037109375,1.61962890625,-124.65625,196.65625
12.3525390625,7.6474609375,-116.234375,204.234375
8.373046875,3.626953125,-111.99658203125,207.99658203125
4.4033203125,-0.4033203125,-127.9453125,191.9453125
12.3447265625,7.6552734375,-116.0703125,204.0703125
16.14599609375,11.85400390625,-122.3486328125,198.3486328125
19.85009765625,16.14990234375,-130.7314453125,190.7314453125
21.55029296875,18.44970703125,-121.12744140625,201.12744140625
11.3212890625,8.6787109375,-123.4111328125,199.4111328125
11.19287109375,8.80712890625,-125.46728515625,197.46728515625
5.1669921875,2.8330078125,-113.21923828125,209.21923828125
11.23193359375,8.76806640625,-120.6552734375,200.6552734375
21.33447265625,18.66552734375,-119.83544921875,199.83544921875
3.35595703125,0.64404296875,-116.86376953125,200.86376953125
3.12744140625,0.87255859375,-117.869140625,197.869140625
2.501953125,1.498046875,-124.97314453125,188.97314453125
13.44384765625,14.55615234375,-126.27783203125,186.27783203125
12.107421875,15.892578125,-107.85791015625,203.85791015625
4.8359375,11.1640625,-121.7705078125,189.7705078125
4.0546875,11.9453125,-106.037109375,206.037109375
14.06005859375,21.93994140625,-120.6064453125,192.6064453125
4.82666015625,11.17333984375,-107.34765625,207.34765625
9.96875,14.03125,-120.08837890625,196.08837890625
10.91796875,13.08203125,-116.67822265625,200.67822265625
11.2021484375,12.7978515625,-117.044921875,201.044921875
0.6650390625,3.3349609375,-111.18505859375,207.18505859375
5.5029296875,10.4970703125,-113.1240234375,205.1240234375
0.13525390625,7.86474609375,-110.87744140625,206.87744140625
8.99072265625,19.00927734375,-124.451171875,192.451171875
8.3369140625,19.6630859375,-121.87744140625,193.87744140625
14.20263671875,25.79736328125,-125.21142578125,189.21142578125
6.4296875,17.5703125,-122.5146484375,190.5146484375
14.8037109375,25.1962890625,-115.80908203125,195.80908203125
-0.83447265625,8.83447265625,-121.0791015625,189.0791015625
-0.55224609375,8.55224609375,-106.30322265625,202.30322265625
1.658203125,10.341796875,-117.48291015625,189.48291015625
13.830078125,22.169921875,-108.67919921875,196.67919921875
-0.0078125,8.0078125,-107.98388671875,195.98388671875
12.1435546875,19.8564453125,-105.47509765625,197.47509765625
16.24267578125,23.75732421875,-103.16259765625,199.16259765625
8.22802734375,15.77197265625,-108.98583984375,192.98583984375
-1.93017578125,5.93017578125,-116.88134765625,184.88134765625
-2.1845703125,6.1845703125,-108.8330078125,192.8330078125
15.5791015625,24.4208984375,-116.859375,184.859375
5.49658203125,14.50341796875,-114.9638671875,186.9638671875
-0.3310546875,8.3310546875,-101.1015625,201.1015625
0.12451171875,7.87548828125,-115.203125,187.203125
16.80322265625,23.19677734375,-107.2216796875,195.2216796875
15.55419921875,20.44580078125,-101.185546875,201.185546875
8.1669921875,11.8330078125,-105.1953125,197.1953125
10.4384765625,13.5615234375,-115.3828125,187.3828125
0.2578125,3.7421875,-111.8330078125,191.8330078125
5.64013671875,10.35986328125,-102.52587890625,202.52587890625
16.68896484375,23.31103515625,-111.33251953125,195.33251953125
-2.4697265625,6.4697265625,-122.09521484375,186.09521484375
4.27001953125,15.72998046875,-120.69970703125,188.69970703125
-4.97998046875,8.97998046875,-117.12353515625,193.12353515625
1.9140625,18.0859375,-117.40771484375,193.40771484375
-0.89599609375,16.89599609375,-121.60791015625,189.60791015625
-5.29150390625,13.29150390625,-105.75146484375,205.75146484375
8.77197265625,27.22802734375,-109.83154296875,201.83154296875
-6.77587890625,10.77587890625,-115.82958984375,195.82958984375
9.857421875,26.142578125,-105.728515625,205.728515625
-5.654296875,9.654296875,-113.54833984375,197.54833984375
4.33251953125,19.66748046875,-105.3505859375,205.3505859375
5.57275390625,22.42724609375,-117.2158203125,193.2158203125
-7.919921875,11.919921875,-107.2080078125,203.2080078125
2.1572265625,25.8427734375,-107.34228515625,203.34228515625
4.298828125,31.701171875,-117.59033203125,193.59033203125
5.0087890625,34.9912109375,-113.8828125,197.8828125
-5.39111328125,25.39111328125,-124.1318359375,188.1318359375
5.12548828125,34.87451171875,-124.2373046875,188.2373046875
6.2880859375,33.7119140625,-110.11181640625,202.11181640625
1.64990234375,26.35009765625,-117.72216796875,193.72216796875
-5.259765625,17.259765625,-119.12109375,191.12109375
-0.8125,20.8125,-124.4609375,184.4609375
-1.2255859375,21.2255859375,-113.95947265625,193.95947265625
-6.53955078125,18.53955078125,-121.8271484375,185.8271484375
-4.58251953125,24.58251953125,-108.1748046875,200.1748046875
3.0380859375,36.9619140625,-106.9462890625,202.9462890625
-15.140625,23.140625,-111.91845703125,199.91845703125
-4.6279296875,36.6279296875,-120.78955078125,192.78955078125
-13.19189453125,29.19189453125,-123.3154296875,191.3154296875
-18.95458984375,22.95458984375,-113.39990234375,201.39990234375
-0.3193359375,40.3193359375,-121.1044921875,193.1044921875
-17.779296875,21.779296875,-116.5908203125,196.5908203125
-11.71923828125,27.71923828125,-120.02294921875,192.02294921875
-10.275390625,30.275390625,-105.50048828125,205.50048828125
-7.279296875,35.279296875,-109.02734375,201.02734375
-12.3154296875,32.3154296875,-114.55078125,194.55078125
-2.880859375,42.880859375,-108.0234375,200.0234375
-6.595703125,38.595703125,-103.45654296875,203.45654296875
-13.38037109375,29.38037109375,-112.896484375,192.896484375
-11.50341796875,27.50341796875,-116.38525390625,188.38525390625
-1.47802734375,33.47802734375,-109.916015625,193.916015625
-11.83447265625,19.83447265625,-121.4560546875,181.4560546875
-0.88525390625,28.88525390625,-108.9638671875,192.9638671875
3.40576171875,32.59423828125,-112.423828125,188.423828125
-4.6337890625,24.6337890625,-109.853515625,189.853515625
-12.56689453125,16.56689453125,-101.2958984375,197.2958984375
1.93310546875,30.06689453125,-106.79833984375,190.79833984375
-3.0390625,23.0390625,-114.41259765625,182.41259765625
-5.63232421875,17.63232421875,-114.18798828125,182.18798828125
-0.15625,20.15625,-110.14697265625,186.14697265625
9.02001953125,26.97998046875,-100.26806640625,196.26806640625
1.5830078125,18.4169921875,-112.49853515625,184.49853515625
9.37109375,26.62890625,-98.80322265625,198.80322265625
-1.54638671875,17.54638671875,-109.20654296875,189.20654296875
7.11181640625,28.88818359375,-99.76708984375,199.76708984375
5.72802734375,30.27197265625,-106.51904296875,194.51904296875
2.6328125,29.3671875,-103.38037109375,199.38037109375
-6.01806640625,22.01806640625,-114.15087890625,190.15087890625
-8.27001953125,20.27001953125,-102.5947265625,202.5947265625
3.72216796875,32.27783203125,-112.59033203125,192.59033203125
-6.16845703125,22.16845703125,-122.234375,182.234375
-11.951171875,15.951171875,-109.81494140625,193.81494140625
4.45947265625,31.54052734375,-111.64404296875,191.64404296875
5.14208984375,30.85791015625,-109.86376953125,193.86376953125
2.0595703125,25.9404296875,-120.3642578125,184.3642578125
-0.9619140625,20.9619140625,-122.8515625,182.8515625
-2.1494140625,18.1494140625,-111.0400390625,195.0400390625
-1.669921875,17.669921875,-118.80224609375,186.80224609375
-7.54736328125,11.54736328125,-104.2333984375,200.2333984375
-5.67041015625,13.67041015625,-115.5888671875,187.5888671875
4.15478515625,23.84521484375,-107.17919921875,195.17919921875
0.10546875,19.89453125,-101.22216796875,201.22216796875
6.25048828125,25.74951171875,-109.75439453125,193.75439453125
10.4921875,29.5078125,-108.6201171875,196.6201171875
10.62060546875,29.37939453125,-109.57177734375,197.57177734375
2.455078125,21.544921875,-116.419921875,192.419921875
1.9833984375,22.0166015625,-115.13671875,195.13671875
3.396484375,24.603515625,-111.8330078125,199.8330078125
-3.00830078125,19.00830078125,-122.6328125,190.6328125
-2.99609375,18.99609375,-117.5400390625,197.5400390625
-2.5390625,18.5390625,-114.40380859375,202.40380859375
-7.86474609375,11.86474609375,-128.9931640625,188.9931640625
-3.36279296875,15.36279296875,-113.138671875,205.138671875
0.625,19.375,-116.85205078125,200.85205078125
10.01806640625,29.98193359375,-128.32958984375,188.32958984375
-4.93359375,16.93359375,-111.84130859375,203.84130859375
0.23388671875,23.76611328125,-113.56787109375,201.56787109375
-2.0302734375,22.0302734375,-121.51025390625,193.51025390625
-1.4921875,21.4921875,-109.5283203125,205.5283203125
9.796875,30.203125,-113.4541015625,201.4541015625
-0.4443359375,16.4443359375,-121.20361328125,193.20361328125
9.396484375,22.603515625,-124.78515625,188.78515625
6.95458984375,17.04541015625,-118.26318359375,194.26318359375
8.00244140625,15.99755859375,-105.689453125,205.689453125
14.47802734375,21.52197265625,-107.078125,203.078125
0.46630859375,7.53369140625,-110.4287109375,198.4287109375
6.13134765625,13.86865234375,-111.76123046875,195.76123046875
1.67236328125,10.32763671875,-117.15380859375,189.15380859375
1.29541015625,10.70458984375,-118.72412109375,186.72412109375
13.177734375,22.822265625,-108.58447265625,196.58447265625
-0.5947265625,8.5947265625,-122.77587890625,182.77587890625
15.9169921875,24.0830078125,-117.23779296875,189.23779296875
-1.478515625,5.478515625,-111.830078125,195.830078125
12.9912109375,19.0087890625,-112.40234375,196.40234375
9.171875,14.828125,-110.86181640625,198.86181640625
13.03466796875,18.96533203125,-105.1982421875,205.1982421875
0.6650390625,7.3349609375,-113.46240234375,197.46240234375
12.1904296875,19.8095703125,-111.71533203125,199.71533203125
13.71875,22.28125,-117.98388671875,193.98388671875
7.28515625,16.71484375,-120.24072265625,192.24072265625
6.85400390625,17.14599609375,-124.40087890625,188.40087890625
2.35302734375,13.64697265625,-126.3642578125,186.3642578125
3.7109375,16.2890625,-124.0234375,188.0234375
8.87744140625,23.12255859375,-105.24267578125,205.24267578125
5.8212890625,22.1787109375,-115.7783203125,191.7783203125
2.5234375,21.4765625,-121.18505859375,181.18505859375
-3.04052734375,19.04052734375,-100.8056640625,192.8056640625
1.041015625,26.958984375,-99.87939453125,179.87939453125
-3.4794921875,27.4794921875,-93.76904296875,165.76904296875
-1.07177734375,37.07177734375,-70.2041015625,162.2041015625
-4.34814453125,44.34814453125,-49.470703125,149.470703125
-19.77490234375,43.77490234375,-34.47998046875,126.47998046875
-31.314453125,51.314453125,-24.66845703125,96.66845703125
-40.19140625,64.19140625,8.240234375,91.759765625
-61.00146484375,65.00146484375,24.5830078125,75.4169921875
-56.1484375,88.1484375,23.10107421875,48.89892578125
-58.4248046875,98.4248046875,37.19580078125,46.80419921875
-61.4375,101.4375,43.037109375,44.962890625
-75.68310546875,87.68310546875,43.501953125,44.498046875
-68.25927734375,92.25927734375,41.931640625,46.068359375
-70.38623046875,86.38623046875,27.7685546875,36.2314453125
-64.966796875,88.966796875,38.18212890625,49.81787109375
-60.3759765625,92.3759765625,23.79150390625,36.20849609375
-56.50830078125,96.50830078125,32.5966796875,43.4033203125
-70.99853515625,82.99853515625,44.0888671875,51.9111328125
-61.46533203125,93.46533203125,33.54248046875,38.45751953125
-61.66162109375,93.66162109375,30.34912109375,33.65087890625
-61.51416015625,93.51416015625,38.296875,41.703125
-57.04345703125,97.04345703125,27.60107421875,32.39892578125
-58.28515625,94.28515625,32.73779296875,39.26220703125
-59.2509765625,91.2509765625,38.15673828125,45.84326171875
-61.9814453125,85.9814453125,44.052734375,51.947265625
-52.61083984375,92.61083984375,32.3203125,39.6796875
-67.37548828125,75.37548828125,36.6640625,43.3359375
-52.52587890625,88.52587890625,46.8037109375,53.1962890625
-58.2099609375,82.2099609375,44.6328125,51.3671875
-56.4130859375,84.4130859375,44.2412109375,51.7587890625
-68.99462890625,72.99462890625,39.82568359375,48.17431640625
-67.7724609375,75.7724609375,25.56201171875,34.43798828125
-60.6025390625,84.6025390625,41.5361328125,50.4638671875
-67.40771484375,79.40771484375,33.75732421875,42.24267578125
-60.1494140625,88.1494140625,26.17724609375,33.82275390625
-54.77294921875,94.77294921875,38.70068359375,45.29931640625
-55.177734375,95.177734375,39.173828125,44.826171875
-63.2451171875,87.2451171875,27.40234375,32.59765625
-66.92919921875,82.92919921875,39.22314453125,44.77685546875
-60.31689453125,88.31689453125,36.59619140625,43.40380859375
-67.6123046875,79.6123046875,37.64501953125,46.35498046875
-63.05517578125,83.05517578125,38.61279296875,49.38720703125
-64.81689453125,80.81689453125,29.77392578125,42.22607421875
-52.94580078125,92.94580078125,29.35107421875,42.64892578125
-65.3515625,81.3515625,37.4482421875,50.5517578125
-71.8369140625,75.8369140625,36.060546875,47.939453125
-70.1865234375,78.1865234375,45.083984375,54.916015625
-64.2666015625,84.2666015625,34.34814453125,41.65185546875
-54.08984375,94.08984375,37.64208984375,42.35791015625
-61.7978515625,85.7978515625,38.7412109375,41.2587890625
-65.58251953125,81.58251953125,29.4560546875,30.5439453125
-61.5888671875,85.5888671875,49.69970703125,50.30029296875
-61.85888671875,85.85888671875,31.53662109375,32.46337890625
-60.306640625,88.306640625,43.1748046875,44.8251953125
-60.7421875,88.7421875,40.9287109375,43.0712890625
-58.95751953125,90.95751953125,31.13525390625,32.86474609375
-54.84912109375,94.84912109375,44.0615234375,43.9384765625
-66.51025390625,82.51025390625,49.79296875,46.20703125
-66.2255859375,82.2255859375,40.17138671875,31.82861328125
-54.33740234375,94.33740234375,42.81884765625,29.18115234375
-61.0751953125,89.0751953125,41.2509765625,22.7490234375
-74.43359375,78.43359375,55.044921875,32.955078125
-68.14990234375,88.14990234375,45.96435546875,22.03564453125
-69.79248046875,89.79248046875,52.00244140625,27.99755859375
-72.90185546875,88.90185546875,45.3583984375,22.6416015625
-69.1591796875,93.1591796875,56.35693359375,35.64306640625
-64.51904296875,96.51904296875,41.35986328125,22.64013671875
-75.2529296875,83.2529296875,52.6591796875,35.3408203125
-71.86572265625,83.86572265625,52.40478515625,35.59521484375
-62.89599609375,90.89599609375,42.544921875,25.455078125
-66.68505859375,86.68505859375,44.84228515625,27.15771484375
-65.20947265625,89.20947265625,56.96435546875,39.03564453125
-72.08251953125,84.08251953125,42.63525390625,25.36474609375
-60.75244140625,96.75244140625,39.78515625,24.21484375
-70.78369140625,86.78369140625,42.59814453125,29.40185546875
-62.09619140625,94.09619140625,55.447265625,44.552734375
-64.990234375,88.990234375,48.73291015625,39.26708984375
-57.97509765625,93.97509765625,42.7421875,33.2578125
-61.50146484375,89.50146484375,51.544921875,40.455078125
-65.763671875,85.763671875,49.001953125,34.998046875
-66.6435546875,86.6435546875,58.818359375,41.181640625
-67.78173828125,87.78173828125,46.6318359375,25.3681640625
-74.70849609375,82.70849609375,50.1064453125,25.8935546875
-65.017578125,93.017578125,43.03271484375,16.96728515625
-60.55029296875,96.55029296875,43.3955078125,16.6044921875
-67.498046875,87.498046875,49.3525390625,22.6474609375
-60.35107421875,92.35107421875,47.1552734375,20.8447265625
-73.68603515625,77.68603515625,63.04931640625,36.95068359375
-59.87548828125,91.87548828125,53.193359375,26.806640625
-68.8701171875,84.8701171875,61.64501953125,34.35498046875
-62.1982421875,94.1982421875,54.3701171875,25.6298828125
-69.19140625,89.19140625,65.25048828125,34.74951171875
-75.35205078125,83.35205078125,56.1044921875,23.8955078125
-60.61181640625,96.61181640625,64.7216796875,31.2783203125
-71.3525390625,83.3525390625,50.91455078125,17.08544921875
-62.1826171875,90.1826171875,60.58740234375,27.41259765625
-59.60595703125,91.60595703125,45.7734375,14.2265625
-67.7900390625,83.7900390625,60.62890625,31.37109375
-72.5107421875,80.5107421875,57.36474609375,30.63525390625
-75.296875,79.296875,60.154296875,35.845703125
-67.67529296875,87.67529296875,53.05859375,30.94140625
-75.39453125,79.39453125,40.03564453125,19.96435546875
-64.521484375,88.521484375,42.97998046875,25.02001953125
-73.37158203125,77.37158203125,39.81884765625,24.18115234375
-72.33056640625,76.33056640625,50.56787109375,37.43212890625
-67.673828125,79.673828125,55.3662109375,44.6337890625
-55.48193359375,91.48193359375,52.451171875,43.548828125
-67.65869140625,79.65869140625,40.0712890625,31.9287109375
-70.0234375,78.0234375,40.34521484375,31.65478515625
-68.3828125,80.3828125,35.150390625,24.849609375
-58.59423828125,90.59423828125,40.12353515625,27.87646484375
-64.599609375,84.599609375,56.82958984375,43.17041015625
-72.42822265625,76.42822265625,42.96044921875,29.03955078125
-72.173828125,76.173828125,36.4833984375,23.5166015625
-53.93701171875,93.93701171875,53.60986328125,42.39013671875
-53.79638671875,93.79638671875,46.6572265625,37.3427734375
-69.8076171875,77.8076171875,53.86376953125,46.13623046875
-58.02587890625,90.02587890625,49.296875,42.703125
-64.51904296875,84.51904296875,38.87109375,33.12890625
-69.32861328125,81.32861328125,34.4462890625,29.5537109375
-58.44091796875,94.44091796875,31.93798828125,28.06201171875
-61.74560546875,93.74560546875,33.3701171875,30.6298828125
-77.037109375,81.037109375,40.87548828125,39.12451171875
-68.05029296875,92.05029296875,44.6181640625,43.3818359375
-62.5478515625,98.5478515625,50.72998046875,49.27001953125
-72.42578125,88.42578125,51.2373046875,48.7626953125
-65.791015625,93.791015625,32.04150390625,27.95849609375
-74.935546875,82.935546875,48.95947265625,43.04052734375
-72.220703125,84.220703125,49.79931640625,42.20068359375
-67.92822265625,87.92822265625,34.453125,25.546875
-60.15673828125,96.15673828125,42.92919921875,33.07080078125
-62.79638671875,94.79638671875,47.3271484375,36.6728515625
-77.58203125,81.58203125,55.740234375,44.259765625
-68.2099609375,92.2099609375,48.19921875,35.80078125
-66.4677734375,94.4677734375,40.64599609375,27.35400390625
-72.32470703125,88.32470703125,56.9951171875,43.0048828125
-77.92529296875,81.92529296875,41.19287109375,26.80712890625
-65.498046875,93.498046875,39.236328125,24.763671875
-65.251953125,93.251953125,51.1357421875,36.8642578125
-71.3134765625,87.3134765625,40.869140625,27.130859375
-59.70703125,99.70703125,50.37548828125,37.62451171875
-62.34228515625,98.34228515625,45.60546875,34.39453125
-63.01806640625,99.01806640625,38.6025390625,29.3974609375
-71.46533203125,91.46533203125,53.52685546875,46.47314453125
-65.46728515625,97.46728515625,36.61865234375,31.38134765625
-74.97900390625,86.97900390625,36.080078125,31.919921875
-68.18359375,92.18359375,45.978515625,42.021484375
-59.408203125,99.408203125,46.20654296875,41.79345703125
-70.95556640625,86.95556640625,52.54833984375,47.45166015625
-72.9365234375,84.9365234375,48.79052734375,43.20947265625
-59.22021484375,99.22021484375,52.8251953125,47.1748046875
-59.5146484375,99.5146484375,36.67626953125,31.32373046875
-71.552734375,87.552734375,50.45068359375,45.54931640625
-77.28076171875,81.28076171875,42.26025390625,37.73974609375
-68.90576171875,88.90576171875,44.1416015625,39.8583984375
-62.79345703125,94.79345703125,38.06494140625,33.93505859375
-75.23779296875,83.23779296875,45.9794921875,42.0205078125
-60.267578125,100.267578125,37.8896484375,34.1103515625
-63.60205078125,99.60205078125,39.88232421875,36.11767578125
-74.79052734375,90.79052734375,36.09912109375,31.90087890625
-67.43505859375,99.43505859375,44.65478515625,39.34521484375
-71.39404296875,95.39404296875,51.54345703125,44.45654296875
-62.8486328125,102.8486328125,52.59033203125,43.40966796875
-80.21533203125,84.21533203125,51.5068359375,40.4931640625
-73.93359375,89.93359375,49.99755859375,38.00244140625
-74.2470703125,90.2470703125,53.91455078125,42.08544921875
-81.07568359375,85.07568359375,37.326171875,26.673828125
-80.037109375,88.037109375,36.48388671875,27.51611328125
-76.61962890625,92.61962890625,37.7099609375,30.2900390625
-72.439453125,96.439453125,35.26171875,28.73828125
-63.45166015625,103.45166015625,51.2548828125,44.7451171875
-76.00390625,88.00390625,51.6591796875,44.3408203125
-66.6669921875,94.6669921875,46.33642578125,37.66357421875
-69.9521484375,89.9521484375,47.0830078125,36.9169921875
-64.0419921875,96.0419921875,47.69140625,36.30859375
-68.72021484375,92.72021484375,36.02294921875,23.97705078125
-63.49658203125,99.49658203125,42.04931640625,29.95068359375
-69.8759765625,93.8759765625,39.84521484375,28.15478515625
-71.6083984375,91.6083984375,53.5322265625,42.4677734375
-60.810546875,100.810546875,47.19970703125,36.80029296875
-75.89404296875,83.89404296875,54.87353515625,45.12646484375
-61.32421875,97.32421875,46.521484375,37.478515625
-61.3515625,97.3515625,46.10107421875,37.89892578125
-67.869140625,91.869140625,41.6142578125,34.3857421875
-76.498046875,84.498046875,33.1416015625,26.8583984375
-74.82177734375,86.82177734375,34.810546875,29.189453125
-60.6171875,100.6171875,52.7265625,47.2734375
-71.97265625,87.97265625,44.9140625,39.0859375
-63.2314453125,95.2314453125,51.32470703125,44.67529296875
-70.81494140625,86.81494140625,53.8779296875,46.1220703125
-59.00634765625,99.00634765625,38.51171875,29.48828125
-63.80908203125,95.80908203125,55.185546875,44.814453125
-60.9560546875,100.9560546875,47.88330078125,36.11669921875
-62.052734375,102.052734375,38.587890625,25.412109375
-62.7607421875,102.7607421875,51.24267578125,36.75732421875
-70.9404296875,94.9404296875,47.7275390625,32.2724609375
-80.6923828125,84.6923828125,45.84228515625,30.15771484375
-76.31640625,88.31640625,57.3876953125,42.6123046875
-70.18359375,94.18359375,44.28466796875,31.71533203125
-64.57373046875,100.57373046875,40.68212890625,31.31787109375
-79.51904296875,87.51904296875,44.9609375,39.0390625
-66.75732421875,102.75732421875,37.58544921875,34.41455078125
-65.8359375,105.8359375,36.8955078125,35.1044921875
-80.3388671875,92.3388671875,42.9462890625,41.0537109375
-80.0791015625,92.0791015625,41.5205078125,38.4794921875
-69.1630859375,101.1630859375,52.25341796875,47.74658203125
-81.88232421875,85.88232421875,32.8271484375,27.1728515625
-70.5380859375,94.5380859375,39.099609375,32.900390625
-79.3115234375,83.3115234375,41.12109375,34.87890625
-66.232421875,94.232421875,49.05859375,42.94140625
-75.2421875,83.2421875,49.06396484375,42.93603515625
-70.28369140625,86.28369140625,51.18017578125,44.81982421875
-63.37353515625,91.37353515625,47.34619140625,40.65380859375
-74.61376953125,78.61376953125,51.4716796875,44.5283203125
-66.140625,86.140625,53.49365234375,46.50634765625
-70.06591796875,82.06591796875,47.3974609375,40.6025390625
-58.427734375,94.427734375,49.19287109375,42.80712890625
-57.16650390625,97.16650390625,46.90380859375,41.09619140625
-62.13134765625,94.13134765625,44.599609375,39.400390625
-59.107421875,99.107421875,50.38427734375,45.61572265625
-59.87109375,99.87109375,34.375,29.625
-74.26904296875,86.26904296875,34.63232421875,29.36767578125
-76.279296875,84.279296875,41.1162109375,34.8837890625
-72.02294921875,88.02294921875,33.6845703125,26.3154296875
-67.70751953125,91.70751953125,40.15771484375,31.84228515625
-63.53955078125,95.53955078125,50.4072265625,41.5927734375
-67.6416015625,91.6416015625,34.39453125,25.60546875
-64.0029296875,96.0029296875,50.16796875,41.83203125
-64.5048828125,96.5048828125,49.80419921875,42.19580078125
-64.990234375,96.990234375,43.3828125,36.6171875
-77.326171875,85.326171875,38.99267578125,33.00732421875
-71.44287109375,91.44287109375,34.76025390625,29.23974609375
-69.31787109375,93.31787109375,44.83056640625,39.16943359375
-72.93798828125,88.93798828125,37.28125,30.71875
-60.2861328125,100.2861328125,54.02294921875,45.97705078125
-65.36181640625,93.36181640625,50.77392578125,41.22607421875
-76.21337890625,80.21337890625,35.171875,24.828125
-70.9697265625,82.9697265625,50.97265625,41.02734375
-71.83447265625,79.83447265625,44.21728515625,35.78271484375
-59.0556640625,91.0556640625,47.216796875,40.783203125
-64.86279296875,84.86279296875,38.3740234375,33.6259765625
-61.36669921875,89.36669921875,35.96435546875,32.03564453125
-64.4619140625,88.4619140625,51.98046875,48.01953125
-75.80078125,79.80078125,44.17138671875,39.82861328125
-68.87060546875,88.87060546875,34.21044921875,29.78955078125
-65.1787109375,93.1787109375,51.91650390625,48.08349609375
-70.4921875,86.4921875,33.36962890625,30.63037109375
-62.982421875,90.982421875,42.89013671875,41.10986328125
-57.21484375,93.21484375,40.87939453125,39.12060546875
-63.91455078125,83.91455078125,47.5849609375,44.4150390625
-67.6201171875,79.6201171875,34.9453125,29.0546875
-60.40087890625,88.40087890625,46.58203125,37.41796875
-69.82958984375,81.82958984375,35.9853515625,24.0146484375
-71.2353515625,83.2353515625,56.7548828125,43.2451171875
-58.09130859375,98.09130859375,56.794921875,43.205078125
-68.26904296875,88.26904296875,54.33740234375,41.66259765625
-60.037109375,96.037109375,43.82421875,32.17578125
-65.83349609375,89.83349609375,53.70166015625,42.29833984375
-67.974609375,87.974609375,48.251953125,35.748046875
-70.486328125,86.486328125,55.49609375,40.50390625
-59.0966796875,99.0966796875,57.17236328125,38.82763671875
-67.38916015625,91.38916015625,58.837890625,37.162109375
-63.02587890625,95.02587890625,48.0361328125,23.9638671875
-71.9404296875,83.9404296875,46.48486328125,21.51513671875
-74.37158203125,78.37158203125,58.17919921875,33.82080078125
-60.70556640625,88.70556640625,57.35791015625,34.64208984375
-65.22607421875,81.22607421875,40.37548828125,19.62451171875
-61.96630859375,81.96630859375,57.5244140625,38.4755859375
-64.73583984375,76.73583984375,58.90771484375,41.09228515625
-59.216796875,79.216796875,50.39453125,33.60546875
-59.0009765625,75.0009765625,45.7509765625,30.2490234375
-51.56689453125,75.56689453125,56.8671875,43.1328125
-54.35302734375,62.35302734375,51.81591796875,40.18408203125
-46.91650390625,54.91650390625,48.62744140625,39.37255859375
-30.90234375,50.90234375,36.9892578125,31.0107421875
-25.6513671875,29.6513671875,40.2529296875,39.7470703125
10.27685546875,29.72314453125,25.8017578125,34.1982421875
23.0810546875,-7.0810546875,31.5224609375,52.4775390625
54.95263671875,-42.95263671875,14.06982421875,49.93017578125
98.8876953125,-86.8876953125,14.75439453125,65.24560546875
153.72265625,-137.72265625,5.10205078125,66.89794921875
223.9306640625,-183.9306640625,8.26708984375,75.73291015625
274.41064453125,-250.41064453125,10.5732421875,77.4267578125
332.03564453125,-300.03564453125,13.43896484375,74.56103515625
379.26318359375,-343.26318359375,13.6640625,66.3359375
416.97607421875,-376.97607421875,13.912109375,58.087890625
430.22802734375,-418.22802734375,17.15380859375,54.84619140625
463.25048828125,-427.25048828125,12.9150390625,47.0849609375
464.40625,-460.40625,33.32470703125,66.67529296875
485.49951171875,-469.49951171875,28.96044921875,63.03955078125
505.46484375,-477.46484375,24.5556640625,59.4443359375
516.359375,-492.359375,24.65771484375,59.34228515625
531.65234375,-499.65234375,33.423828125,66.576171875
540.73046875,-508.73046875,16.64404296875,47.35595703125
551.3857421875,-511.3857421875,19.95849609375,48.04150390625
544.01611328125,-528.01611328125,35.08203125,60.91796875
551.451171875,-527.451171875,25.875,50.125
546.57421875,-538.57421875,32.259765625,55.740234375
561.95556640625,-529.95556640625,24.13037109375,47.86962890625
551.7001953125,-547.7001953125,25.3896484375,50.6103515625
559.4970703125,-547.4970703125,34.123046875,61.876953125
560.8037109375,-552.8037109375,22.72314453125,53.27685546875
573.01806640625,-545.01806640625,21.810546875,54.189453125
579.615234375,-539.615234375,25.962890625,58.037109375
564.20654296875,-552.20654296875,23.40576171875,52.59423828125
560.53466796875,-548.53466796875,23.8583984375,48.1416015625
568.43701171875,-528.43701171875,30.63427734375,49.36572265625
559.8427734375,-519.8427734375,38.9560546875,53.0439453125
536.8583984375,-520.8583984375,30.31005859375,41.68994140625
535.86865234375,-495.86865234375,26.68212890625,37.31787109375
521.51611328125,-481.51611328125,38.5244140625,49.4755859375
490.48388671875,-482.48388671875,40.4736328125,51.5263671875
489.21435546875,-453.21435546875,38.99267578125,49.00732421875
461.7587890625,-449.7587890625,46.15869140625,53.84130859375
459.88037109375,-419.88037109375,35.6806640625,40.3193359375
437.31298828125,-409.31298828125,37.11572265625,38.88427734375
425.98193359375,-385.98193359375,36.052734375,35.947265625
396.068359375,-380.068359375,32.240234375,31.759765625
373.9287109375,-365.9287109375,37.6240234375,38.3759765625
357.962890625,-345.962890625,48.34228515625,51.65771484375
340.5166015625,-328.5166015625,36.7060546875,43.2939453125
323.7998046875,-311.7998046875,45.1337890625,54.8662109375
319.83251953125,-283.83251953125,44.03515625,55.96484375
294.421875,-278.421875,39.67822265625,52.32177734375
291.21240234375,-251.21240234375,36.09619140625,47.90380859375
273.822265625,-237.822265625,35.10009765625,44.89990234375
246.01318359375,-234.01318359375,44.3759765625,51.6240234375
233.8095703125,-213.8095703125,37.60205078125,42.39794921875
227.513671875,-187.513671875,42.5419921875,45.4580078125
211.59228515625,-171.59228515625,49.07470703125,50.92529296875
190.486328125,-162.486328125,37.1904296875,38.8095703125
172.421875,-152.421875,44.96630859375,47.03369140625
165.35107421875,-133.35107421875,44.5322265625,47.4677734375
149.04345703125,-125.04345703125,28.06103515625,31.93896484375
137.25927734375,-113.25927734375,33.7353515625,38.2646484375
131.8896484375,-95.8896484375,35.72607421875,40.27392578125
116.984375,-88.984375,48.12158203125,51.87841796875
98.69140625,-86.69140625,46.888671875,49.111328125
97.17822265625,-69.17822265625,43.85888671875,44.14111328125
86.5703125,-62.5703125,36.7861328125,35.2138671875
68.9111328125,-64.9111328125,31.46337890625,28.53662109375
62.13818359375,-58.13818359375,45.80029296875,42.19970703125
66.08984375,-42.08984375,43.84814453125,40.15185546875
50.55322265625,-46.55322265625,37.7451171875,34.2548828125
53.3095703125,-33.3095703125,43.623046875,40.376953125
56.1826171875,-20.1826171875,31.54296875,28.45703125
35.08984375,-31.08984375,31.48974609375,28.51025390625
36.08837890625,-20.08837890625,31.42724609375,28.57275390625
27.3505859375,-19.3505859375,33.3603515625,30.6396484375
23.0595703125,-15.0595703125,47.353515625,44.646484375
27.279296875,-3.279296875,43.47412109375,40.52587890625
13.91650390625,-9.91650390625,43.724609375,40.275390625
16.81103515625,-0.81103515625,48.01611328125,43.98388671875
23.8740234375,12.1259765625,44.23876953125,39.76123046875
11.1396484375,4.8603515625,46.3359375,41.6640625
12.716796875,11.283203125,44.33251953125,39.66748046875
6.68603515625,9.31396484375,34.29052734375,29.70947265625
3.05029296875,8.94970703125,40.22900390625,35.77099609375
11.75439453125,20.24560546875,32.07421875,27.92578125
2.7109375,13.2890625,35.70654296875,32.29345703125
-4.1875,8.1875,41.0595703125,38.9404296875
-1.06494140625,13.06494140625,32.20068359375,31.79931640625
-2.0390625,14.0390625,47.32666015625,48.67333984375
4.83349609375,23.16650390625,34.67919921875,37.32080078125
-6.41259765625,14.41259765625,34.41455078125,37.58544921875
0.3349609375,23.6650390625,28.50537109375,31.49462890625
-6.79248046875,18.79248046875,46.74072265625,49.25927734375
6.28369140625,33.71630859375,42.84033203125,45.15966796875
1.54931640625,30.45068359375,46.62841796875,49.37158203125
-11.07958984375,19.07958984375,48.15234375,51.84765625
4.32373046875,35.67626953125,47.63623046875,52.36376953125
-0.25341796875,32.25341796875,41.35107421875,46.64892578125
-8.76416015625,24.76416015625,33.45068359375,38.54931640625
-1.16357421875,33.16357421875,29.900390625,34.099609375
-13.46630859375,21.46630859375,32.525390625,35.474609375
-9.73876953125,25.73876953125,33.11181640625,34.88818359375
-8.05517578125,28.05517578125,41.4970703125,42.5029296875
-8.45458984375,28.45458984375,29.6220703125,30.3779296875
-14.93798828125,22.93798828125,33.52880859375,34.47119140625
-5.4970703125,33.4970703125,37.333984375,38.666015625
-10.14794921875,30.14794921875,33.18115234375,34.81884765625
-10.9404296875,30.9404296875,37.1826171875,38.8173828125
-3.916015625,39.916015625,39.3818359375,40.6181640625
-19.041015625,27.041015625,47.744140625,48.255859375
-6.1689453125,42.1689453125,30.17724609375,29.82275390625
-19.087890625,31.087890625,30.583984375,29.416015625
-7.63818359375,43.63818359375,36.90380859375,35.09619140625
-7.8173828125,43.8173828125,31.11962890625,28.88037109375
-21.79248046875,29.79248046875,31.23291015625,28.76708984375
-11.78369140625,39.78369140625,33.248046875,30.751953125
-19.94873046875,31.94873046875,35.18310546875,32.81689453125
-10.33251953125,42.33251953125,33.109375,30.890625
-12.8955078125,40.8955078125,35.15478515625,32.84521484375
-15.57177734375,39.57177734375,39.45458984375,36.54541015625
-14.2958984375,42.2958984375,52.0654296875,47.9345703125
-15.01220703125,43.01220703125,38.87255859375,33.12744140625
-17.67529296875,41.67529296875,33.603515625,26.396484375
-26.2509765625,34.2509765625,41.9462890625,34.0537109375
-12.732421875,48.732421875,33.73388671875,26.26611328125
-17.150390625,45.150390625,49.0849609375,42.9150390625
-17.56884765625,45.56884765625,44.38818359375,39.61181640625
-20.05224609375,44.05224609375,46.12060546875,41.87939453125
-28.60107421875,36.60107421875,38.568359375,33.431640625
-15.14501953125,51.14501953125,35.65234375,28.34765625
-27.60302734375,39.60302734375,48.94140625,39.05859375
-25.97900390625,41.97900390625,47.8662109375,36.1337890625
-22.38525390625,46.38525390625,42.00634765625,29.99365234375
-18.98193359375,50.98193359375,49.28564453125,38.71435546875
-33.87451171875,37.87451171875,41.9755859375,34.0244140625
-27.03759765625,47.03759765625,32.52734375,27.47265625
-32.32421875,44.32421875,33.33984375,30.66015625
-25.53076171875,53.53076171875,42.5888671875,41.4111328125
-24.48681640625,56.48681640625,44.20703125,43.79296875
-23.107421875,59.107421875,45.9951171875,46.0048828125
-21.41845703125,61.41845703125,31.78466796875,32.21533203125
-31.51513671875,51.51513671875,37.533203125,38.466796875
-27.505859375,55.505859375,45.30419921875,46.69580078125
-25.45458984375,57.45458984375,45.17822265625,46.82177734375
-35.37353515625,47.37353515625,31.1630859375,32.8369140625
-27.2353515625,55.2353515625,35.18701171875,36.81298828125
-21.00390625,61.00390625,47.15966796875,48.84033203125
-28.66455078125,52.66455078125,35.06494140625,36.93505859375
-30.26123046875,50.26123046875,49.00732421875,50.99267578125
-21.9228515625,57.9228515625,41.1845703125,42.8154296875
-27.8232421875,51.8232421875,31.79150390625,32.20849609375
-38.08642578125,42.08642578125,38.89111328125,37.10888671875
-30.68310546875,50.68310546875,42.36865234375,37.63134765625
-33.40380859375,49.40380859375,47.962890625,40.037109375
-35.93994140625,47.93994140625,51.36181640625,40.63818359375
-40.0302734375,44.0302734375,40.29248046875,27.70751953125
-31.6015625,51.6015625,40.59375,27.40625
-28.830078125,52.830078125,36.24560546875,23.75439453125
-20.09619140625,60.09619140625,53.3740234375,42.6259765625
-37.82421875,41.82421875,34.216796875,25.783203125
-30.27099609375,50.27099609375,43.04443359375,36.95556640625
-39.37451171875,43.37451171875,40.0341796875,35.9658203125
-36.77099609375,48.77099609375,37.203125,34.796875
-41.98095703125,45.98095703125,30.43701171875,29.56298828125
-24.6533203125,64.6533203125,47.6083984375,48.3916015625
-32.72900390625,56.72900390625,28.70263671875,31.29736328125
-34.42333984375,54.42333984375,27.83740234375,32.16259765625
-36.09033203125,52.09033203125,35.1796875,40.8203125
-32.03564453125,56.03564453125,32.80126953125,39.19873046875
-42.39208984375,46.39208984375,36.6064453125,43.3935546875
-29.08544921875,61.08544921875,34.365234375,41.634765625
-31.9111328125,59.9111328125,45.84716796875,54.15283203125
-44.66796875,48.66796875,44.9736328125,55.0263671875
-37.265625,57.265625,43.88818359375,56.11181640625
-31.75439453125,63.75439453125,42.91259765625,57.08740234375
-34.27734375,62.27734375,36.43310546875,51.56689453125
-28.982421875,68.982421875,30.73388671875,45.26611328125
-35.93212890625,63.93212890625,23.861328125,36.138671875
-37.025390625,65.025390625,45.5771484375,54.4228515625
-34.00244140625,70.00244140625,39.43701171875,44.56298828125
-44.5673828125,60.5673828125,46.97802734375,49.02197265625
-34.57080078125,70.57080078125,45.94189453125,46.05810546875
-32.14208984375,72.14208984375,32.38720703125,31.61279296875
-33.646484375,69.646484375,40.61865234375,39.38134765625
-43.48828125,59.48828125,48.96337890625,47.03662109375
-41.88134765625,61.88134765625,33.55908203125,30.44091796875
-46.72607421875,58.72607421875,44.275390625,39.724609375
-37.6513671875,69.6513671875,38.806640625,33.193359375
-52.19482421875,56.19482421875,52.86279296875,47.13720703125
-52.0400390625,56.0400390625,48.3330078125,43.6669921875
-43.201171875,63.201171875,39.31982421875,36.68017578125
-42.060546875,62.060546875,48.076171875,47.923828125
-45.2109375,57.2109375,28.875,31.125
-45.19775390625,57.19775390625,33.90625,38.09375
-34.2705078125,70.2705078125,31.2421875,36.7578125
-52.271484375,56.271484375,32.86767578125,39.13232421875
-38.70263671875,74.70263671875,34.73974609375,41.26025390625
-44.93603515625,72.93603515625,32.8076171875,39.1923828125
-40.46484375,80.46484375,34.99951171875,41.00048828125
-57.08544921875,65.08544921875,31.2060546875,36.7939453125
-42.9033203125,78.9033203125,35.28955078125,40.71044921875
-54.19140625,66.19140625,41.13720703125,46.86279296875
-41.22509765625,77.22509765625,26.7158203125,33.2841796875
-46.2080078125,70.2080078125,46.11865234375,53.88134765625
-55.2998046875,59.2998046875,25.54736328125,34.45263671875
-42.6728515625,70.6728515625,33.22216796875,42.77783203125
-42.486328125,70.486328125,35.27734375,44.72265625
-40.7919921875,72.7919921875,27.703125,36.296875
-45.451171875,69.451171875,40.39013671875,47.60986328125
-48.1376953125,68.1376953125,47.21240234375,52.78759765625
-56.45263671875,60.45263671875,30.08251953125,33.91748046875
-48.099609375,68.099609375,28.9296875,31.0703125
-51.02978515625,63.02978515625,35.62841796875,36.37158203125
-41.51513671875,69.51513671875,33.99072265625,34.00927734375
-48.083984375,60.083984375,47.83056640625,48.16943359375
-45.3310546875,61.3310546875,47.0625,48.9375
-43.66943359375,63.66943359375,41.779296875,46.220703125
-37.1357421875,73.1357421875,26.2451171875,33.7548828125
-47.3701171875,67.3701171875,24.8134765625,35.1865234375
-49.75732421875,69.75732421875,37.8017578125,50.1982421875
-47.6767578125,75.6767578125,35.4072265625,48.5927734375
-46.74072265625,78.74072265625,39.658203125,52.341796875
-44.91162109375,80.91162109375,26.42822265625,37.57177734375
-44.466796875,80.466796875,43.47216796875,52.52783203125
-55.83642578125,67.83642578125,40.47998046875,47.52001953125
-57.41455078125,65.41455078125,47.16748046875,52.83251953125
-47.45068359375,75.45068359375,31.36328125,36.63671875
-54.04638671875,70.04638671875,39.08056640625,44.91943359375
-43.1748046875,83.1748046875,30.49658203125,37.50341796875
-62.6875,66.6875,41.853515625,50.146484375
-56.3173828125,76.3173828125,31.3349609375,40.6650390625
-63.72412109375,71.72412109375,25.009765625,34.990234375
-50.6025390625,86.6025390625,24.859375,35.140625
-54.79638671875,82.79638671875,28.8310546875,39.1689453125
-62.330078125,74.330078125,38.87939453125,49.12060546875
-53.37451171875,81.37451171875,44.95263671875,55.04736328125
-60.1796875,72.1796875,42.994140625,53.005859375
-49.01708984375,81.01708984375,44.953125,55.046875
-52.13916015625,76.13916015625,30.82568359375,41.17431640625
-45.732421875,81.732421875,32.650390625,43.349609375
-45.88037109375,81.88037109375,44.50146484375,55.49853515625
-58.52099609375,70.52099609375,34.4384765625,45.5615234375
-49.43798828125,81.43798828125,26.478515625,37.521484375
-54.30419921875,78.30419921875,44.5654296875,55.4345703125
-64.79638671875,68.79638671875,38.60498046875,49.39501953125
-50.759765625,82.759765625,44.5322265625,55.4677734375
-48.310546875,84.310546875,26.39208984375,37.60791015625
-51.79541015625,79.79541015625,42.34326171875,53.65673828125
-63.6005859375,67.6005859375,44.5771484375,55.4228515625
-59.94482421875,71.94482421875,27.18212890625,36.81787109375
-62.76611328125,70.76611328125,36.05517578125,43.94482421875
-51.7724609375,83.7724609375,44.90380859375,51.09619140625
-48.60107421875,88.60107421875,33.3759765625,38.6240234375
-53.0,85.0,37.23583984375,42.76416015625
-48.93994140625,88.93994140625,32.52685546875,39.47314453125
-58.62939453125,78.62939453125,25.58935546875,34.41064453125
-52.40869140625,84.40869140625,32.90673828125,43.09326171875
-56.58935546875,80.58935546875,44.85986328125,55.14013671875
-61.30908203125,77.30908203125,37.54736328125,46.45263671875
-60.47119140625,80.47119140625,26.74462890625,33.25537109375
-59.77294921875,83.77294921875,44.025390625,47.974609375
-56.80126953125,88.80126953125,46.9326171875,49.0673828125
-69.18017578125,77.18017578125,49.146484375,50.853515625
-66.7314453125,78.7314453125,44.6015625,47.3984375
-65.587890625,77.587890625,35.49658203125,40.50341796875
-52.15869140625,88.15869140625,42.216796875,49.783203125
-60.9365234375,76.9365234375,37.1787109375,46.8212890625
-48.2548828125,88.2548828125,40.67041015625,51.32958984375
-66.1337890625,70.1337890625,38.73779296875,49.26220703125
-52.30224609375,84.30224609375,43.18603515625,52.81396484375
-58.3662109375,78.3662109375,35.6650390625,44.3349609375
-50.03125,86.03125,31.833984375,40.166015625
-63.27197265625,71.27197265625,37.50244140625,46.49755859375
-46.37744140625,86.37744140625,34.70263671875,45.29736328125
-59.8193359375,71.8193359375,29.66162109375,42.33837890625
-49.99658203125,81.99658203125,22.68603515625,37.31396484375
-50.9873046875,82.9873046875,30.0478515625,45.9521484375
-62.46435546875,74.46435546875,25.8642578125,42.1357421875
-57.82568359375,81.82568359375,36.05712890625,51.94287109375
-64.4677734375,76.4677734375,22.37841796875,37.62158203125
-64.0576171875,76.0576171875,28.52685546875,43.47314453125
-66.70068359375,70.70068359375,30.32177734375,45.67822265625
-50.92431640625,82.92431640625,23.81689453125,40.18310546875
-51.4658203125,79.4658203125,33.27978515625,50.72021484375
-48.9462890625,80.9462890625,25.02294921875,42.97705078125
-63.5947265625,67.5947265625,37.21240234375,54.78759765625
-61.166015625,73.166015625,25.7880859375,42.2119140625
-61.09033203125,77.09033203125,42.52294921875,57.47705078125
-66.728515625,74.728515625,41.185546875,54.814453125
-57.6181640625,85.6181640625,31.6787109375,44.3212890625
-67.59765625,75.59765625,32.0732421875,43.9267578125
-58.81689453125,82.81689453125,32.50244140625,43.49755859375
-67.65185546875,71.65185546875,35.01025390625,44.98974609375
-62.55322265625,74.55322265625,35.4462890625,44.5537109375
-53.89599609375,81.89599609375,41.515625,50.484375
-63.87939453125,71.87939453125,24.9658203125,35.0341796875
-52.50439453125,84.50439453125,41.78857421875,54.21142578125
-49.59521484375,89.59521484375,30.2978515625,45.7021484375
-52.85693359375,88.85693359375,39.0322265625,56.9677734375
-59.9638671875,83.9638671875,32.5166015625,51.4833984375
-70.67431640625,74.67431640625,30.98779296875,49.01220703125
-66.91552734375,78.91552734375,26.2470703125,41.7529296875
-54.78271484375,90.78271484375,25.728515625,38.271484375
-68.46630859375,76.46630859375,32.75244140625,43.24755859375
-70.17529296875,74.17529296875,44.85498046875,55.14501953125
-56.09814453125,88.09814453125,30.00732421875,41.99267578125
-70.39208984375,74.39208984375,26.63427734375,41.36572265625
-57.14501953125,89.14501953125,35.38671875,52.61328125
-66.31201171875,82.31201171875,28.82763671875,47.17236328125
-69.68310546875,81.68310546875,39.1611328125,56.8388671875
-56.9228515625,96.9228515625,22.1533203125,37.8466796875
-73.68994140625,81.68994140625,33.27880859375,46.72119140625
-69.78369140625,85.78369140625,27.98193359375,40.01806640625
-63.24365234375,91.24365234375,37.95166015625,50.04833984375
-62.35009765625,90.35009765625,39.2392578125,52.7607421875
-61.4990234375,89.4990234375,40.19970703125,55.80029296875
-63.0126953125,87.0126953125,33.29296875,50.70703125
-65.0009765625,85.0009765625,38.85595703125,57.14404296875
-65.349609375,85.349609375,34.98291015625,53.01708984375
-61.8291015625,89.8291015625,29.525390625,46.474609375
-64.23095703125,88.23095703125,30.208984375,45.791015625
-68.44873046875,84.44873046875,36.7646484375,51.2353515625
-66.49267578125,86.49267578125,29.03515625,42.96484375
-62.45849609375,90.45849609375,41.01123046875,54.98876953125
-58.466796875,94.466796875,42.82958984375,57.17041015625
-58.58642578125,94.58642578125,26.6923828125,41.3076171875
-74.7890625,78.7890625,22.8017578125,37.1982421875
-62.98291015625,90.98291015625,23.2919921875,36.7080078125
-57.0771484375,97.0771484375,32.22119140625,43.77880859375
-73.05126953125,81.05126953125,45.560546875,54.439453125
-64.9521484375,88.9521484375,37.19677734375,42.80322265625
-64.8564453125,88.8564453125,48.9609375,51.0390625
-66.833984375,86.833984375,38.65673828125,37.34326171875
-66.92041015625,86.92041015625,32.11767578125,27.88232421875
-63.111328125,91.111328125,45.216796875,38.783203125
-73.37353515625,81.37353515625,53.88134765625,46.11865234375
-65.6640625,89.6640625,54.10791015625,45.89208984375
-67.96826171875,87.96826171875,37.98486328125,30.01513671875
-68.29638671875,88.29638671875,37.68408203125,30.31591796875
-58.64990234375,98.64990234375,49.408203125,42.591796875
-72.96923828125,84.96923828125,39.3193359375,32.6806640625
-59.12060546875,99.12060546875,41.48388671875,34.51611328125
-60.947265625,96.947265625,43.849609375,36.150390625
-60.34228515625,96.34228515625,52.28369140625,43.71630859375
-75.30908203125,79.30908203125,38.6572265625,29.3427734375
-65.9833984375,85.9833984375,40.90478515625,31.09521484375
-68.60302734375,80.60302734375,53.0517578125,42.9482421875
-53.43115234375,93.43115234375,47.15771484375,36.84228515625
-54.6435546875,90.6435546875,39.2529296875,28.7470703125
-60.2392578125,84.2392578125,53.29931640625,42.70068359375
-62.03369140625,82.03369140625,45.2255859375,34.7744140625
-69.76318359375,73.76318359375,42.98486328125,33.01513671875
-55.22021484375,87.22021484375,42.59521484375,33.40478515625
-60.34814453125,80.34814453125,50.13525390625,41.86474609375
-57.265625,81.265625,33.705078125,26.294921875
-66.22802734375,70.22802734375,47.41162109375,40.58837890625
-51.54736328125,83.54736328125,49.33154296875,42.66845703125
-51.49365234375,83.49365234375,53.4892578125,46.5107421875
-50.1875,86.1875,53.8212890625,46.1787109375
-67.54541015625,71.54541015625,54.162109375,45.837890625
-69.31640625,73.31640625,38.2880859375,29.7119140625
-63.158203125,83.158203125,42.015625,33.984375
-58.73193359375,90.73193359375,35.30224609375,28.69775390625
-57.775390625,93.775390625,36.294921875,31.705078125
-64.17236328125,88.17236328125,33.27978515625,30.72021484375
-65.99755859375,85.99755859375,30.54296875,29.45703125
-67.50244140625,83.50244140625,42.23779296875,41.76220703125
-55.0029296875,95.0029296875,38.322265625,37.677734375
-70.751953125,78.751953125,44.62158203125,43.37841796875
-56.8310546875,92.8310546875,38.94970703125,37.05029296875
-67.13525390625,83.13525390625,47.23095703125,44.76904296875
-55.4365234375,95.4365234375,47.52490234375,44.47509765625
-71.49951171875,79.49951171875,45.9736328125,42.0263671875
-63.20166015625,87.20166015625,52.69482421875,47.30517578125
-56.5986328125,92.5986328125,53.69482421875,46.30517578125
-71.88623046875,75.88623046875,54.822265625,45.177734375
-71.27294921875,75.27294921875,45.7822265625,34.2177734375
-70.85791015625,74.85791015625,40.2451171875,27.7548828125
-68.59912109375,76.59912109375,55.97021484375,44.02978515625
-68.3798828125,76.3798828125,42.9072265625,33.0927734375
-56.103515625,88.103515625,39.2353515625,32.7646484375
-61.73095703125,81.73095703125,35.30615234375,32.69384765625
-55.26123046875,87.26123046875,35.5439453125,36.4560546875
-54.71142578125,86.71142578125,30.3046875,33.6953125
-50.11279296875,90.11279296875,41.74169921875,46.25830078125
-65.517578125,73.517578125,27.7314453125,32.2685546875
-58.9931640625,78.9931640625,41.90380859375,46.09619140625
-64.5947265625,72.5947265625,27.81103515625,32.18896484375
-62.330078125,74.330078125,29.13720703125,34.86279296875
-58.14697265625,78.14697265625,45.8544921875,54.1455078125
-63.9453125,71.9453125,24.24658203125,35.75341796875
-61.642578125,73.642578125,28.775390625,43.224609375
-53.26513671875,81.26513671875,39.87158203125,56.12841796875
-60.97705078125,72.97705078125,35.74267578125,52.25732421875
-60.9892578125,72.9892578125,32.3056640625,47.6943359375
-49.39306640625,85.39306640625,25.23974609375,38.76025390625
-54.03857421875,82.03857421875,30.1474609375,41.8525390625
-50.57080078125,86.57080078125,32.71826171875,43.28173828125
-48.59765625,88.59765625,38.82373046875,49.17626953125
-65.90380859375,69.90380859375,26.51904296875,37.48095703125
-52.58203125,80.58203125,23.99658203125,36.00341796875
-59.01318359375,71.01318359375,27.51025390625,40.48974609375
-47.70166015625,79.70166015625,39.2880859375,52.7119140625
-61.04248046875,65.04248046875,35.45166015625,48.54833984375
-49.15283203125,77.15283203125,41.98974609375,54.01025390625
-49.861328125,77.861328125,28.7998046875,39.2001953125
-54.853515625,74.853515625,29.7822265625,38.2177734375
-45.84619140625,85.84619140625,36.91064453125,43.08935546875
-64.7021484375,68.7021484375,30.2333984375,33.7666015625
-51.4208984375,83.4208984375,33.81298828125,34.18701171875
-58.0615234375,78.0615234375,35.630859375,32.369140625
-62.6533203125,74.6533203125,43.513671875,36.486328125
-61.138671875,77.138671875,39.14501953125,28.85498046875
-53.3828125,85.3828125,42.17578125,29.82421875
-63.25537109375,75.25537109375,56.41259765625,43.58740234375
-64.74267578125,72.74267578125,47.9296875,36.0703125
-52.0009765625,84.0009765625,39.07275390625,28.92724609375
-59.296875,75.296875,52.2890625,43.7109375
-54.85791015625,78.85791015625,45.9345703125,38.0654296875
-52.73828125,80.73828125,34.1201171875,25.8798828125
-52.76904296875,80.76904296875,50.68310546875,41.31689453125
-54.6455078125,78.6455078125,47.29150390625,36.70849609375
-46.10107421875,86.10107421875,45.61083984375,34.38916015625
-53.09130859375,77.09130859375,43.4482421875,32.5517578125
-61.87744140625,65.87744140625,50.8232421875,41.1767578125
-44.9462890625,80.9462890625,49.92578125,42.07421875
-50.7734375,74.7734375,43.037109375,36.962890625
-61.56494140625,65.56494140625,48.427734375,43.572265625
-47.11083984375,83.11083984375,40.2646484375,35.7353515625
-60.865234375,72.865234375,52.560546875,47.439453125
-66.19580078125,70.19580078125,35.16943359375,28.83056640625
-60.67724609375,76.67724609375,39.82275390625,32.17724609375
-64.28125,72.28125,52.22802734375,43.77197265625
-61.3408203125,73.3408203125,34.197265625,25.802734375
-54.35400390625,78.35400390625,47.74267578125,40.25732421875
-47.7412109375,83.7412109375,43.078125,36.921875
-55.69580078125,75.69580078125,38.5361328125,33.4638671875
-52.1865234375,80.1865234375,36.4208984375,31.5791015625
-47.03955078125,87.03955078125,42.86279296875,37.13720703125
-58.04150390625,78.04150390625,37.74169921875,30.25830078125
-62.98779296875,74.98779296875,44.7109375,35.2890625
-53.70556640625,85.70556640625,39.33642578125,28.66357421875
-62.0869140625,78.0869140625,35.29296875,24.70703125
-58.12158203125,82.12158203125,36.51708984375,27.48291015625
-51.896484375,87.896484375,37.22900390625,30.77099609375
-65.5546875,73.5546875,49.8515625,46.1484375
-63.22265625,75.22265625,48.8447265625,47.1552734375
-62.9716796875,74.9716796875,48.54248046875,47.45751953125
-52.8232421875,84.8232421875,37.0439453125,34.9560546875
-52.78857421875,84.78857421875,42.17578125,37.82421875
-48.91015625,88.91015625,49.55029296875,42.44970703125
-53.2548828125,85.2548828125,46.7060546875,37.2939453125
-53.8740234375,85.8740234375,35.26416015625,24.73583984375
-50.716796875,90.716796875,37.05078125,26.94921875
-63.595703125,79.595703125,36.125,27.875
-58.22900390625,86.22900390625,46.72607421875,41.27392578125
-68.365234375,76.365234375,41.1708984375,38.8291015625
-61.904296875,81.904296875,37.72998046875,38.27001953125
-64.98291015625,76.98291015625,36.55859375,39.44140625
-65.96044921875,73.96044921875,29.68310546875,34.31689453125
-61.32421875,77.32421875,45.0546875,50.9453125
-51.49853515625,87.49853515625,34.5986328125,41.4013671875
-54.6416015625,86.6416015625,30.2392578125,37.7607421875
-56.53759765625,88.53759765625,37.90576171875,46.09423828125
-60.677734375,88.677734375,29.525390625,38.474609375
-64.46630859375,88.46630859375,35.05908203125,44.94091796875
-61.47021484375,93.47021484375,38.53955078125,49.46044921875
-67.54931640625,87.54931640625,44.08349609375,55.91650390625
-68.8662109375,84.8662109375,33.8544921875,46.1455078125
-73.783203125,77.783203125,31.978515625,44.021484375
-70.72216796875,78.72216796875,26.470703125,37.529296875
-58.02197265625,90.02197265625,43.21337890625,52.78662109375
-65.8544921875,81.8544921875,33.9697265625,42.0302734375
-62.2158203125,86.2158203125,26.4765625,33.5234375
-58.97216796875,90.97216796875,38.5400390625,45.4599609375
-61.91259765625,89.91259765625,34.125,41.875
-58.76611328125,94.76611328125,37.37939453125,46.62060546875
-57.23046875,97.23046875,36.58984375,47.41015625
-75.05029296875,79.05029296875,30.07275390625,41.92724609375
