V1,V2,V3,V4
18.5,17.5,38.0,38.0
12.0,12.0,32.0,32.0
11.5699462890625,12.4300537109375,38.9765625,41.0234375
0.8599853515625,3.1400146484375,28.17578125,31.82421875
7.955078125,12.044921875,27.68017578125,32.31982421875
0.961181640625,7.038818359375,35.498046875,40.501953125
15.979736328125,24.020263671875,33.56298828125,38.43701171875
5.1136474609375,14.8863525390625,45.7685546875,50.2314453125
8.4696044921875,19.5303955078125,29.99560546875,34.00439453125
2.1356201171875,13.8643798828125,44.130859375,47.869140625
-1.8592529296875,9.8592529296875,46.0625,49.9375
6.4351806640625,17.5648193359375,41.71435546875,46.28564453125
12.9063720703125,23.0936279296875,41.10302734375,46.89697265625
7.42529296875,16.57470703125,26.38623046875,33.61376953125
5.908935546875,14.091064453125,29.828125,38.171875
10.354736328125,17.645263671875,45.677734375,54.322265625
0.8243408203125,7.1756591796875,34.03515625,41.96484375
5.36474609375,10.63525390625,36.76904296875,43.23095703125
11.924560546875,16.075439453125,29.560546875,34.439453125
2.3316650390625,5.6683349609375,46.04052734375,49.95947265625
12.3792724609375,15.6207275390625,33.96337890625,38.03662109375
3.9635009765625,8.0364990234375,47.333984375,52.666015625
13.19970703125,18.80029296875,32.40869140625,39.59130859375
6.407958984375,13.592041015625,45.5625,54.4375
7.971435546875,16.028564453125,45.0966796875,54.9033203125
8.1300048828125,15.8699951171875,39.09130859375,48.90869140625
-1.16845703125,5.16845703125,43.3974609375,52.6025390625
17.740478515625,22.259521484375,33.755859375,42.244140625
10.3856201171875,13.6143798828125,39.97607421875,48.02392578125
10.3804931640625,13.6195068359375,36.04345703125,43.95654296875
1.5914306640625,6.4085693359375,28.10986328125,35.89013671875
4.193359375,11.806640625,32.35546875,39.64453125
14.5977783203125,25.4022216796875,28.8388671875,35.1611328125
11.311279296875,24.688720703125,37.42724609375,42.57275390625
6.7681884765625,21.2318115234375,39.8662109375,44.1337890625
5.173095703125,18.826904296875,41.9453125,46.0546875
-1.5955810546875,9.5955810546875,39.619140625,44.380859375
2.0418701171875,9.9581298828125,35.01416015625,40.98583984375
9.525390625,14.474609375,40.3232421875,47.6767578125
14.3934326171875,17.6065673828125,33.69580078125,42.30419921875
14.474609375,17.525390625,31.18603515625,40.81396484375
9.942626953125,14.057373046875,38.78125,49.21875
11.204345703125,16.795654296875,30.48193359375,41.51806640625
8.7110595703125,15.2889404296875,32.37451171875,43.62548828125
6.794921875,13.205078125,30.65966796875,41.34033203125
11.5908203125,16.4091796875,41.58984375,50.41015625
5.0653076171875,6.9346923828125,31.35205078125,36.64794921875
13.1116943359375,10.8883056640625,37.95751953125,38.04248046875
17.6405029296875,10.3594970703125,45.220703125,38.779296875
16.61767578125,3.38232421875,36.84326171875,23.15673828125
26.053466796875,5.946533203125,58.5625,37.4375
27.95751953125,0.04248046875,46.29541015625,17.70458984375
36.306884765625,-0.306884765625,64.19287109375,27.80712890625
41.0081787109375,-5.0081787109375,72.548828125,27.451171875
43.8665771484375,-11.8665771484375,73.61669921875,18.38330078125
40.570068359375,-24.570068359375,73.42236328125,6.57763671875
52.7335205078125,-20.7335205078125,73.6923828125,-5.6923828125
50.007080078125,-30.007080078125,81.92919921875,-9.92919921875
44.20751953125,-40.20751953125,91.55224609375,-11.55224609375
47.41162109375,-39.41162109375,106.0615234375,-6.0615234375
55.9320068359375,-31.9320068359375,99.146484375,-19.146484375
62.1796875,-26.1796875,98.74853515625,-22.74853515625
46.4609375,-42.4609375,111.07763671875,-11.07763671875
50.8277587890625,-38.8277587890625,94.56640625,-26.56640625
65.085693359375,-25.085693359375,89.75537109375,-29.75537109375
60.954833984375,-28.954833984375,107.1337890625,-11.1337890625
52.285888671875,-36.285888671875,102.9853515625,-14.9853515625
63.187255859375,-23.187255859375,105.32080078125,-13.32080078125
43.9862060546875,-39.9862060546875,103.9326171875,-15.9326171875
49.0391845703125,-33.0391845703125,104.537109375,-16.537109375
58.5299072265625,-22.5299072265625,104.93896484375,-16.93896484375
56.3682861328125,-24.3682861328125,97.119140625,-25.119140625
50.26123046875,-30.26123046875,107.20263671875,-15.20263671875
43.888427734375,-35.888427734375,101.3447265625,-21.3447265625
51.0767822265625,-27.0767822265625,111.603515625,-11.603515625
55.8668212890625,-19.8668212890625,111.873046875,-11.873046875
38.4552001953125,-34.4552001953125,93.923828125,-29.923828125
39.0849609375,-31.0849609375,95.5380859375,-27.5380859375
49.9500732421875,-17.9500732421875,100.65625,-20.65625
41.1580810546875,-25.1580810546875,95.458984375,-23.458984375
34.7236328125,-30.7236328125,108.33349609375,-8.33349609375
42.572021484375,-22.572021484375,107.7294921875,-7.7294921875
52.562744140625,-12.562744140625,87.96484375,-27.96484375
34.52880859375,-30.52880859375,93.07373046875,-25.07373046875
42.353515625,-22.353515625,100.75048828125,-20.75048828125
48.03857421875,-16.03857421875,94.4453125,-30.4453125
43.725341796875,-19.725341796875,103.57177734375,-23.57177734375
45.6302490234375,-17.6302490234375,107.7509765625,-19.7509765625
37.91552734375,-25.91552734375,98.974609375,-26.974609375
40.5601806640625,-24.5601806640625,101.6083984375,-21.6083984375
41.3251953125,-25.3251953125,94.2255859375,-26.2255859375
45.8575439453125,-21.8575439453125,99.35595703125,-19.35595703125
37.8753662109375,-29.8753662109375,99.27294921875,-19.27294921875
45.310791015625,-21.310791015625,97.91455078125,-21.91455078125
50.3277587890625,-14.3277587890625,106.96484375,-14.96484375
51.2183837890625,-11.2183837890625,112.05078125,-12.05078125
38.2486572265625,-22.2486572265625,108.916015625,-16.916015625
37.56005859375,-21.56005859375,101.52001953125,-25.52001953125
49.151611328125,-9.151611328125,98.0146484375,-30.0146484375
40.9287109375,-16.9287109375,108.63037109375,-20.63037109375
30.7740478515625,-26.7740478515625,109.5283203125,-21.5283203125
48.5894775390625,-8.5894775390625,110.68994140625,-22.68994140625
42.2891845703125,-14.2891845703125,97.912109375,-37.912109375
41.7984619140625,-13.7984619140625,114.884765625,-22.884765625
37.060302734375,-17.060302734375,117.3427734375,-21.3427734375
40.0753173828125,-12.0753173828125,111.18798828125,-27.18798828125
38.922119140625,-10.922119140625,118.5595703125,-18.5595703125
31.7333984375,-15.7333984375,101.7900390625,-33.7900390625
36.64111328125,-8.64111328125,115.275390625,-19.275390625
27.7423095703125,-15.7423095703125,105.28955078125,-29.28955078125
37.1060791015625,-5.1060791015625,101.84375,-33.84375
32.79638671875,-8.79638671875,100.677734375,-36.677734375
26.853271484375,-14.853271484375,109.3720703125,-29.3720703125
23.248291015625,-19.248291015625,105.55322265625,-33.55322265625
33.8572998046875,-9.8572998046875,117.0654296875,-21.0654296875
32.4923095703125,-12.4923095703125,110.033203125,-26.033203125
34.9794921875,-10.9794921875,108.7841796875,-24.7841796875
29.246826171875,-17.246826171875,109.68798828125,-21.68798828125
39.36376953125,-7.36376953125,96.98486328125,-32.98486328125
41.488037109375,-5.488037109375,104.68701171875,-24.68701171875
41.74755859375,-5.74755859375,110.595703125,-18.595703125
38.115966796875,-10.115966796875,102.4287109375,-26.4287109375
40.40576171875,-8.40576171875,97.97900390625,-29.97900390625
38.3824462890625,-10.3824462890625,109.23193359375,-17.23193359375
39.9329833984375,-7.9329833984375,108.373046875,-16.373046875
27.1600341796875,-19.1600341796875,111.69677734375,-11.69677734375
24.342041015625,-20.342041015625,93.46044921875,-29.46044921875
37.7921142578125,-5.7921142578125,91.74853515625,-31.74853515625
25.7008056640625,-17.7008056640625,106.4130859375,-18.4130859375
26.069580078125,-18.069580078125,105.14013671875,-21.14013671875
28.7572021484375,-16.7572021484375,103.6064453125,-23.6064453125
39.5953369140625,-7.5953369140625,107.65771484375,-19.65771484375
32.47509765625,-16.47509765625,103.396484375,-23.396484375
39.35107421875,-11.35107421875,95.11376953125,-31.11376953125
40.17822265625,-12.17822265625,103.119140625,-23.119140625
34.85888671875,-18.85888671875,107.55322265625,-19.55322265625
29.2637939453125,-25.2637939453125,114.3076171875,-14.3076171875
35.3072509765625,-19.3072509765625,113.07275390625,-17.07275390625
37.0050048828125,-17.0050048828125,97.49609375,-33.49609375
36.466552734375,-16.466552734375,95.35107421875,-35.35107421875
41.814453125,-9.814453125,104.6572265625,-24.6572265625
41.1341552734375,-9.1341552734375,103.68701171875,-23.68701171875
30.4852294921875,-18.4852294921875,100.849609375,-24.849609375
29.965087890625,-17.965087890625,110.5126953125,-14.5126953125
27.7237548828125,-19.7237548828125,110.8408203125,-14.8408203125
25.899658203125,-21.899658203125,93.74560546875,-33.74560546875
26.49951171875,-22.49951171875,98.95849609375,-30.95849609375
41.35205078125,-9.35205078125,116.19091796875,-16.19091796875
28.1773681640625,-24.1773681640625,113.25048828125,-21.25048828125
34.7205810546875,-18.7205810546875,110.06982421875,-26.06982421875
46.8602294921875,-6.8602294921875,100.634765625,-36.634765625
30.635986328125,-22.635986328125,106.916015625,-30.916015625
42.2103271484375,-10.2103271484375,108.8486328125,-28.8486328125
35.8143310546875,-15.8143310546875,112.38818359375,-24.38818359375
39.68505859375,-11.68505859375,105.5966796875,-29.5966796875
39.997802734375,-11.997802734375,116.6845703125,-16.6845703125
46.78857421875,-6.78857421875,111.962890625,-19.962890625
37.899658203125,-17.899658203125,99.72265625,-31.72265625
34.99658203125,-22.99658203125,106.09375,-26.09375
35.6827392578125,-23.6827392578125,102.97265625,-30.97265625
43.68115234375,-15.68115234375,102.03857421875,-34.03857421875
44.9818115234375,-12.9818115234375,100.86279296875,-36.86279296875
35.847900390625,-19.847900390625,119.07763671875,-19.07763671875
36.6622314453125,-16.6622314453125,102.552734375,-34.552734375
27.7259521484375,-23.7259521484375,99.4853515625,-35.4853515625
29.13720703125,-21.13720703125,116.33740234375,-16.33740234375
32.815673828125,-16.815673828125,103.630859375,-27.630859375
34.617919921875,-14.617919921875,95.71142578125,-35.71142578125
32.4449462890625,-16.4449462890625,106.59326171875,-26.59326171875
42.2958984375,-6.2958984375,99.970703125,-35.970703125
30.245849609375,-18.245849609375,119.3740234375,-19.3740234375
44.386474609375,-4.386474609375,112.3876953125,-28.3876953125
38.775634765625,-10.775634765625,104.81640625,-36.81640625
41.41357421875,-9.41357421875,116.736328125,-24.736328125
32.252197265625,-20.252197265625,120.419921875,-20.419921875
33.2078857421875,-21.2078857421875,102.20458984375,-38.20458984375
48.169189453125,-8.169189453125,118.35205078125,-22.35205078125
40.98095703125,-16.98095703125,102.95849609375,-38.95849609375
33.4384765625,-25.4384765625,111.9140625,-31.9140625
49.321533203125,-9.321533203125,104.943359375,-40.943359375
48.4754638671875,-8.4754638671875,111.71533203125,-35.71533203125
34.916015625,-18.916015625,123.978515625,-23.978515625
26.889404296875,-22.889404296875,117.65673828125,-29.65673828125
40.8304443359375,-4.8304443359375,106.87646484375,-38.87646484375
39.2227783203125,-3.2227783203125,109.9150390625,-33.9150390625
22.4093017578125,-18.4093017578125,121.09326171875,-21.09326171875
24.448486328125,-16.448486328125,104.66552734375,-36.66552734375
31.100830078125,-11.100830078125,120.74365234375,-20.74365234375
41.96337890625,-1.96337890625,107.2919921875,-35.2919921875
24.67724609375,-20.67724609375,104.16357421875,-40.16357421875
27.087646484375,-19.087646484375,111.158203125,-35.158203125
29.2830810546875,-17.2830810546875,112.06787109375,-36.06787109375
35.50732421875,-11.50732421875,104.71875,-44.71875
40.010009765625,-8.010009765625,105.00634765625,-45.00634765625
32.889892578125,-16.889892578125,118.92138671875,-30.92138671875
46.01318359375,-6.01318359375,122.5439453125,-26.5439453125
47.0594482421875,-7.0594482421875,122.01806640625,-26.01806640625
33.6981201171875,-21.6981201171875,123.49462890625,-23.49462890625
39.78271484375,-15.78271484375,111.09619140625,-35.09619140625
47.4498291015625,-7.4498291015625,102.89453125,-42.89453125
39.048583984375,-15.048583984375,114.91357421875,-30.91357421875
34.95654296875,-18.95654296875,113.1318359375,-33.1318359375
47.3741455078125,-7.3741455078125,121.49609375,-25.49609375
44.21337890625,-12.21337890625,119.94091796875,-27.94091796875
39.128662109375,-19.128662109375,124.4091796875,-24.4091796875
43.6781005859375,-15.6781005859375,122.85791015625,-26.85791015625
39.5338134765625,-19.5338134765625,115.25048828125,-35.25048828125
30.639404296875,-26.639404296875,121.54296875,-29.54296875
43.2413330078125,-11.2413330078125,105.6767578125,-45.6767578125
45.78662109375,-5.78662109375,117.5859375,-33.5859375
30.73583984375,-18.73583984375,109.22900390625,-41.22900390625
42.3658447265625,-6.3658447265625,104.619140625,-44.619140625
38.6585693359375,-10.6585693359375,121.83984375,-25.83984375
43.314453125,-7.314453125,123.0107421875,-23.0107421875
45.89892578125,-5.89892578125,110.23388671875,-34.23388671875
32.03564453125,-20.03564453125,115.548828125,-27.548828125
31.55224609375,-19.55224609375,106.9404296875,-34.9404296875
42.4998779296875,-6.4998779296875,102.390625,-38.390625
37.054931640625,-9.054931640625,107.919921875,-31.919921875
35.4149169921875,-7.4149169921875,113.57666015625,-25.57666015625
23.761962890625,-15.761962890625,101.3984375,-37.3984375
20.3096923828125,-16.3096923828125,101.373046875,-37.373046875
29.3427734375,-5.3427734375,103.435546875,-35.435546875
27.15576171875,-7.15576171875,99.4912109375,-39.4912109375
27.896240234375,-7.896240234375,111.45849609375,-27.45849609375
33.4100341796875,-5.4100341796875,119.32080078125,-19.32080078125
35.216552734375,-7.216552734375,99.162109375,-39.162109375
40.6632080078125,-4.6632080078125,117.16650390625,-21.16650390625
25.182373046875,-21.182373046875,99.5498046875,-39.5498046875
24.5235595703125,-20.5235595703125,104.45263671875,-36.45263671875
28.85400390625,-12.85400390625,107.8310546875,-35.8310546875
28.705078125,-8.705078125,113.42724609375,-33.42724609375
28.7845458984375,-4.7845458984375,108.83447265625,-40.83447265625
31.712158203125,0.287841796875,119.6416015625,-31.6416015625
21.7799072265625,-9.7799072265625,105.6064453125,-45.6064453125
22.8419189453125,-10.8419189453125,104.75537109375,-44.75537109375
22.39599609375,-14.39599609375,107.3896484375,-39.3896484375
29.8236083984375,-9.8236083984375,115.9619140625,-27.9619140625
32.6602783203125,-8.6602783203125,116.89453125,-24.89453125
22.7618408203125,-18.7618408203125,114.41064453125,-26.41064453125
24.2972412109375,-16.2972412109375,114.4560546875,-26.4560546875
39.5908203125,0.4091796875,118.73681640625,-22.73681640625
26.923583984375,-10.923583984375,120.8662109375,-20.8662109375
28.4100341796875,-8.4100341796875,116.54443359375,-24.54443359375
26.01318359375,-10.01318359375,115.7021484375,-23.7021484375
35.6522216796875,0.3477783203125,116.5234375,-20.5234375
23.3035888671875,-11.3035888671875,103.35498046875,-31.35498046875
25.0364990234375,-9.0364990234375,98.54833984375,-34.54833984375
34.970703125,1.029296875,110.31689453125,-22.31689453125
25.2017822265625,-9.2017822265625,98.68212890625,-34.68212890625
27.74169921875,-7.74169921875,109.4755859375,-25.4755859375
28.484619140625,-8.484619140625,114.43017578125,-22.43017578125
31.20361328125,-7.20361328125,99.29443359375,-39.29443359375
35.595458984375,-3.595458984375,107.9365234375,-31.9365234375
29.3870849609375,-9.3870849609375,112.3857421875,-28.3857421875
34.470947265625,-2.470947265625,106.78271484375,-34.78271484375
35.00244140625,0.99755859375,105.27587890625,-37.27587890625
23.3748779296875,-7.3748779296875,117.91357421875,-25.91357421875
32.068115234375,3.931884765625,102.58935546875,-42.58935546875
17.4510498046875,-9.4510498046875,121.10009765625,-25.10009765625
15.6358642578125,-11.6358642578125,119.255859375,-27.255859375
16.4619140625,-12.4619140625,121.00830078125,-25.00830078125
19.5850830078125,-11.5850830078125,114.4765625,-30.4765625
34.6275634765625,1.3724365234375,103.90283203125,-39.90283203125
35.2916259765625,0.7083740234375,105.5322265625,-37.5322265625
23.4241943359375,-11.4241943359375,115.50537109375,-27.50537109375
31.022705078125,-3.022705078125,115.80322265625,-27.80322265625
30.216796875,-2.216796875,122.23876953125,-22.23876953125
25.2200927734375,-5.2200927734375,108.52197265625,-36.52197265625
20.25830078125,-8.25830078125,104.3583984375,-40.3583984375
27.508544921875,0.491455078125,119.568359375,-23.568359375
25.06689453125,-1.06689453125,120.193359375,-20.193359375
30.9512939453125,5.0487060546875,106.53271484375,-30.53271484375
33.1160888671875,6.8839111328125,107.05810546875,-27.05810546875
17.4873046875,-9.4873046875,114.22705078125,-18.22705078125
21.9949951171875,-5.9949951171875,106.29736328125,-26.29736328125
24.589599609375,-4.589599609375,97.23681640625,-37.23681640625
25.2255859375,-5.2255859375,116.77783203125,-20.77783203125
25.8406982421875,-5.8406982421875,100.57080078125,-40.57080078125
18.369140625,-14.369140625,114.30908203125,-30.30908203125
28.772705078125,-4.772705078125,117.78125,-29.78125
37.06103515625,2.93896484375,116.861328125,-32.861328125
37.2655029296875,2.7344970703125,117.4912109375,-33.4912109375
27.398193359375,-7.398193359375,105.70654296875,-45.70654296875
33.447509765625,-1.447509765625,115.6796875,-35.6796875
27.4122314453125,-7.4122314453125,119.7109375,-31.7109375
29.330322265625,-5.330322265625,122.1181640625,-30.1181640625
25.2579345703125,-9.2579345703125,106.998046875,-46.998046875
19.1978759765625,-15.1978759765625,119.9931640625,-35.9931640625
37.0435791015625,2.9564208984375,112.27294921875,-44.27294921875
26.58056640625,-6.58056640625,112.826171875,-40.826171875
17.569091796875,-13.569091796875,122.9482421875,-22.9482421875
23.8604736328125,-3.8604736328125,112.64794921875,-20.64794921875
29.5037841796875,6.4962158203125,102.70654296875,-14.70654296875
24.7796630859375,7.2203369140625,84.3583984375,-16.3583984375
12.1163330078125,-0.1163330078125,82.7607421875,-2.7607421875
9.9136962890625,2.0863037109375,74.560546875,1.439453125
10.3524169921875,5.6475830078125,71.7744140625,8.2255859375
15.31591796875,12.68408203125,78.017578125,21.982421875
12.475341796875,11.524658203125,62.90625,13.09375
13.493896484375,14.506103515625,72.34619140625,27.65380859375
10.22705078125,13.77294921875,62.53125,21.46875
10.80126953125,17.19873046875,57.71533203125,18.28466796875
5.5345458984375,14.4654541015625,59.9306640625,20.0693359375
-1.2537841796875,9.2537841796875,64.88427734375,23.11572265625
12.555908203125,23.444091796875,52.048828125,7.951171875
8.806640625,19.193359375,72.8720703125,27.1279296875
5.1673583984375,14.8326416015625,66.98876953125,21.01123046875
11.3299560546875,20.6700439453125,62.33203125,17.66796875
11.1663818359375,20.8336181640625,51.1396484375,8.8603515625
6.7398681640625,17.2601318359375,69.8408203125,30.1591796875
12.209716796875,23.790283203125,60.8720703125,23.1279296875
5.7191162109375,18.2808837890625,68.50146484375,31.49853515625
7.35693359375,20.64306640625,48.74365234375,11.25634765625
7.1683349609375,20.8316650390625,63.4111328125,24.5888671875
9.1678466796875,22.8321533203125,52.2451171875,11.7548828125
11.307373046875,24.692626953125,67.0693359375,24.9306640625
1.446533203125,14.553466796875,53.87255859375,10.12744140625
1.373779296875,14.626220703125,54.7900390625,9.2099609375
4.8931884765625,19.1068115234375,53.97802734375,6.02197265625
7.9268798828125,24.0731201171875,57.46875,6.53125
-1.4384765625,17.4384765625,67.08349609375,12.91650390625
-0.9847412109375,20.9847412109375,74.484375,17.515625
-2.4637451171875,22.4637451171875,77.322265625,18.677734375
-9.7020263671875,17.7020263671875,61.41796875,2.58203125
-6.6448974609375,22.6448974609375,60.87109375,3.12890625
-9.336669921875,21.336669921875,64.0498046875,7.9501953125
2.142333984375,33.857666015625,69.45458984375,14.54541015625
3.73291015625,36.26708984375,73.50146484375,18.49853515625
-4.580322265625,28.580322265625,60.30859375,3.69140625
3.22802734375,36.77197265625,69.6162109375,10.3837890625
-10.802734375,22.802734375,60.90234375,-0.90234375
3.330078125,36.669921875,69.6337890625,6.3662109375
-14.4365234375,18.4365234375,67.51953125,4.48046875
-14.214599609375,18.214599609375,70.61669921875,9.38330078125
-4.0997314453125,28.0997314453125,79.2587890625,20.7412109375
-4.10546875,28.10546875,57.87158203125,2.12841796875
-2.1475830078125,30.1475830078125,72.7939453125,19.2060546875
-10.0865478515625,22.0865478515625,72.18017578125,19.81982421875
2.2012939453125,33.7987060546875,74.00537109375,21.99462890625
4.766845703125,35.233154296875,74.12158203125,21.87841796875
-2.4439697265625,26.4439697265625,74.32373046875,21.67626953125
-5.577880859375,21.577880859375,76.4130859375,23.5869140625
-4.8392333984375,20.8392333984375,72.2626953125,19.7373046875
-10.426025390625,14.426025390625,65.873046875,14.126953125
-10.464599609375,14.464599609375,73.38232421875,22.61767578125
7.0474853515625,32.9525146484375,66.99072265625,17.00927734375
2.258056640625,29.741943359375,66.8173828125,17.1826171875
-8.5843505859375,20.5843505859375,64.8037109375,15.1962890625
-11.2398681640625,19.2398681640625,66.7294921875,17.2705078125
4.4241943359375,35.5758056640625,56.369140625,7.630859375
-3.6207275390625,27.6207275390625,69.6845703125,22.3154296875
-3.5462646484375,27.5462646484375,64.9052734375,19.0947265625
2.40673828125,33.59326171875,72.451171875,27.548828125
-3.966796875,27.966796875,62.70458984375,17.29541015625
-4.718994140625,28.718994140625,57.77783203125,10.22216796875
-11.6627197265625,23.6627197265625,57.39990234375,6.60009765625
-10.3944091796875,26.3944091796875,56.99951171875,3.00048828125
-12.443603515625,24.443603515625,73.93896484375,18.06103515625
-9.503173828125,25.503173828125,75.7900390625,20.2099609375
-9.61865234375,21.61865234375,70.517578125,17.482421875
6.7884521484375,33.2115478515625,60.5068359375,11.4931640625
9.0804443359375,30.9195556640625,70.416015625,25.583984375
-3.3238525390625,15.3238525390625,50.9365234375,9.0634765625
-4.7216796875,12.7216796875,60.53125,19.46875
-3.0482177734375,15.0482177734375,63.27294921875,20.72705078125
-7.980224609375,11.980224609375,62.8232421875,17.1767578125
-9.1162109375,13.1162109375,62.6025390625,13.3974609375
-4.12158203125,20.12158203125,62.04833984375,9.95166015625
-8.7646484375,16.7646484375,62.84912109375,9.15087890625
-8.8970947265625,16.8970947265625,59.03466796875,4.96533203125
-8.4461669921875,16.4461669921875,68.9033203125,15.0966796875
-3.462890625,19.462890625,68.81787109375,15.18212890625
9.8309326171875,30.1690673828125,70.9990234375,17.0009765625
-0.9246826171875,16.9246826171875,57.41015625,2.58984375
1.906982421875,18.093017578125,63.794921875,8.205078125
12.12109375,27.87890625,75.822265625,20.177734375
7.763671875,24.236328125,77.26025390625,22.73974609375
5.0955810546875,22.9044189453125,66.08349609375,13.91650390625
-3.551513671875,15.551513671875,56.49853515625,7.50146484375
-5.9407958984375,13.9407958984375,68.8583984375,23.1416015625
-6.0291748046875,14.0291748046875,57.5380859375,14.4619140625
-7.9442138671875,11.9442138671875,64.8095703125,23.1904296875
0.13525390625,19.86474609375,56.7587890625,15.2412109375
6.1015625,25.8984375,65.28173828125,22.71826171875
-2.0587158203125,18.0587158203125,72.13818359375,27.86181640625
-4.3299560546875,16.3299560546875,57.056640625,10.943359375
-4.7364501953125,16.7364501953125,71.82470703125,24.17529296875
-1.3348388671875,21.3348388671875,56.34521484375,7.65478515625
-4.13330078125,20.13330078125,54.62841796875,5.37158203125
-3.026123046875,23.026123046875,54.75537109375,5.24462890625
6.19189453125,33.80810546875,66.8291015625,17.1708984375
-12.2674560546875,16.2674560546875,58.91552734375,9.08447265625
-8.2845458984375,20.2845458984375,57.01513671875,6.98486328125
6.106201171875,33.893798828125,55.06005859375,4.93994140625
-5.2969970703125,21.2969970703125,68.94775390625,19.05224609375
-2.8175048828125,22.8175048828125,72.61376953125,23.38623046875
-2.7945556640625,22.7945556640625,60.09326171875,11.90673828125
-1.4420166015625,25.4420166015625,69.5361328125,22.4638671875
-10.728271484375,18.728271484375,67.13818359375,20.86181640625
-2.3502197265625,30.3502197265625,63.037109375,16.962890625
2.1646728515625,37.8353271484375,71.24853515625,24.75146484375
-12.7247314453125,24.7247314453125,69.6669921875,22.3330078125
-2.78125,34.78125,62.13427734375,13.86572265625
-16.0986328125,20.0986328125,70.52392578125,21.47607421875
-15.0450439453125,19.0450439453125,64.8046875,15.1953125
-12.080810546875,20.080810546875,73.05029296875,22.94970703125
-9.534423828125,21.534423828125,75.39013671875,24.60986328125
2.5323486328125,33.4676513671875,69.94287109375,18.05712890625
-13.700439453125,17.700439453125,72.7587890625,19.2412109375
-13.9564208984375,17.9564208984375,73.78515625,18.21484375
-14.0401611328125,18.0401611328125,62.861328125,5.138671875
-7.9478759765625,23.9478759765625,71.74853515625,12.25146484375
-1.85107421875,29.85107421875,70.228515625,9.771484375
4.0015869140625,35.9984130859375,62.22216796875,1.77783203125
1.412109375,34.587890625,75.87939453125,16.12060546875
0.331787109375,35.668212890625,75.5380859375,16.4619140625
-7.1112060546875,31.1112060546875,71.56982421875,12.43017578125
-0.6627197265625,40.6627197265625,66.19140625,5.80859375
-20.0479736328125,24.0479736328125,65.3466796875,2.6533203125
-7.0574951171875,39.0574951171875,82.7236328125,17.2763671875
-9.57421875,37.57421875,71.88134765625,4.11865234375
-17.57421875,29.57421875,72.443359375,3.556640625
-21.1063232421875,25.1063232421875,64.2529296875,-4.2529296875
-20.2845458984375,24.2845458984375,71.4296875,4.5703125
-17.2603759765625,25.2603759765625,74.310546875,9.689453125
-4.2027587890625,36.2027587890625,75.29833984375,12.70166015625
-3.2955322265625,35.2955322265625,72.7255859375,11.2744140625
-4.7393798828125,32.7393798828125,62.75537109375,1.24462890625
-16.7078857421875,20.7078857421875,75.36181640625,12.63818359375
0.745361328125,39.254638671875,76.3681640625,11.6318359375
-4.208740234375,36.208740234375,75.5263671875,8.4736328125
-15.1746826171875,27.1746826171875,70.59228515625,1.40771484375
-9.6612548828125,33.6612548828125,75.3857421875,4.6142578125
-7.3299560546875,35.3299560546875,81.8056640625,10.1943359375
-0.2088623046875,40.2088623046875,75.81005859375,4.18994140625
-12.73388671875,24.73388671875,73.3935546875,2.6064453125
-1.5758056640625,33.5758056640625,78.59375,9.40625
2.69482421875,37.30517578125,65.5234375,-1.5234375
1.915771484375,38.084228515625,74.40283203125,9.59716796875
-11.5594482421875,27.5594482421875,81.54345703125,18.45654296875
-5.0306396484375,37.0306396484375,63.26611328125,0.73388671875
-1.80908203125,41.80908203125,75.77392578125,12.22607421875
-13.5469970703125,29.5469970703125,69.03466796875,2.96533203125
-16.3731689453125,24.3731689453125,68.74609375,-0.74609375
-8.7880859375,28.7880859375,82.42578125,9.57421875
-11.414306640625,23.414306640625,75.5849609375,0.4150390625
-6.7303466796875,26.7303466796875,75.92041015625,0.07958984375
-12.888671875,20.888671875,81.427734375,6.572265625
-9.69287109375,25.69287109375,80.3916015625,7.6083984375
1.2745361328125,38.7254638671875,73.27099609375,2.72900390625
-7.576904296875,31.576904296875,76.537109375,7.462890625
-2.031005859375,38.031005859375,74.51171875,5.48828125
-6.1365966796875,34.1365966796875,73.267578125,2.732421875
-2.1370849609375,38.1370849609375,86.59375,13.40625
-2.32177734375,38.32177734375,84.05517578125,7.94482421875
-8.8760986328125,32.8760986328125,85.1396484375,6.8603515625
-13.7882080078125,29.7882080078125,87.46728515625,8.53271484375
-4.862548828125,40.862548828125,88.9560546875,11.0439453125
-3.82763671875,43.82763671875,71.86279296875,-3.86279296875
-22.47021484375,26.47021484375,84.65234375,11.34765625
-20.713134765625,28.713134765625,69.7705078125,-1.7705078125
-22.598388671875,26.598388671875,79.44140625,8.55859375
-12.18994140625,36.18994140625,73.5947265625,2.4052734375
-19.4942626953125,27.4942626953125,85.96630859375,14.03369140625
-2.4578857421875,42.4578857421875,82.27783203125,9.72216796875
-15.0478515625,27.0478515625,76.38818359375,3.61181640625
-15.3431396484375,23.3431396484375,68.3095703125,-4.3095703125
-9.56396484375,25.56396484375,86.11572265625,13.88427734375
-14.0244140625,18.0244140625,81.818359375,10.181640625
2.9825439453125,33.0174560546875,65.32568359375,-5.32568359375
3.3056640625,32.6943359375,84.525390625,15.474609375
-0.998779296875,28.998779296875,67.4072265625,0.5927734375
0.301513671875,31.698486328125,62.15087890625,-2.15087890625
-4.5047607421875,28.5047607421875,61.08349609375,-1.08349609375
-9.204833984375,25.204833984375,80.5458984375,19.4541015625
-1.739501953125,33.739501953125,64.73046875,3.26953125
1.8253173828125,38.1746826171875,63.58251953125,0.41748046875
-8.6058349609375,28.6058349609375,72.81396484375,7.18603515625
-7.06103515625,31.06103515625,70.01708984375,1.98291015625
-9.4593505859375,29.4593505859375,72.8310546875,3.1689453125
-5.6529541015625,33.6529541015625,83.05078125,12.94921875
-15.5142822265625,23.5142822265625,80.66796875,11.33203125
-1.0264892578125,37.0264892578125,63.8310546875,-3.8310546875
-12.3111572265625,24.3111572265625,68.771484375,3.228515625
-11.5926513671875,23.5926513671875,67.72119140625,4.27880859375
-15.119873046875,19.119873046875,80.8837890625,19.1162109375
-13.0916748046875,21.0916748046875,62.42919921875,1.57080078125
-7.62109375,27.62109375,62.486328125,1.513671875
-16.715087890625,20.715087890625,81.11474609375,18.88525390625
-18.2620849609375,22.2620849609375,64.2470703125,-0.2470703125
-12.02685546875,32.02685546875,69.67138671875,2.32861328125
-21.6812744140625,25.6812744140625,81.0751953125,10.9248046875
-6.88232421875,42.88232421875,72.158203125,-0.158203125
-13.368408203125,37.368408203125,86.7470703125,13.2529296875
-21.0528564453125,29.0528564453125,68.8505859375,-4.8505859375
-16.0758056640625,32.0758056640625,70.6298828125,-2.6298828125
-12.77734375,32.77734375,78.2998046875,5.7001953125
-9.5853271484375,33.5853271484375,72.04150390625,-0.04150390625
-2.8590087890625,38.8590087890625,71.9501953125,0.0498046875
-6.76171875,34.76171875,82.04541015625,9.95458984375
-9.2298583984375,33.2298583984375,84.31494140625,11.68505859375
-18.037841796875,26.037841796875,84.7509765625,11.2490234375
-18.9163818359375,26.9163818359375,87.35986328125,12.64013671875
-21.6412353515625,25.6412353515625,76.13037109375,-0.13037109375
-6.0574951171875,42.0574951171875,74.98583984375,-2.98583984375
-20.047607421875,28.047607421875,79.76416015625,0.23583984375
-21.5230712890625,25.5230712890625,76.2578125,-4.2578125
-6.4588623046875,38.4588623046875,76.30615234375,-4.30615234375
-4.9632568359375,36.9632568359375,77.88232421875,-1.88232421875
-11.3104248046875,27.3104248046875,85.1162109375,6.8837890625
-3.87548828125,31.87548828125,84.248046875,7.751953125
-2.9794921875,30.9794921875,85.544921875,10.455078125
-12.741455078125,20.741455078125,83.21142578125,8.78857421875
-9.0262451171875,25.0262451171875,75.33251953125,0.66748046875
-11.5279541015625,23.5279541015625,79.8583984375,4.1416015625
-1.9290771484375,33.9290771484375,74.62255859375,-2.62255859375
-0.0362548828125,36.0362548828125,73.37451171875,-5.37451171875
-5.8233642578125,29.8233642578125,81.82763671875,2.17236328125
-1.3837890625,33.3837890625,77.732421875,-1.732421875
-10.8614501953125,22.8614501953125,74.98779296875,-2.98779296875
-10.3956298828125,22.3956298828125,75.7275390625,0.2724609375
-12.0848388671875,20.0848388671875,68.31103515625,-4.31103515625
0.0264892578125,31.9735107421875,75.1728515625,4.8271484375
3.94873046875,36.05126953125,66.603515625,-2.603515625
-12.2677001953125,20.2677001953125,80.5966796875,11.4033203125
-14.5421142578125,18.5421142578125,80.8564453125,11.1435546875
1.2288818359375,34.7711181640625,68.9716796875,-0.9716796875
-12.8455810546875,20.8455810546875,80.65283203125,11.34716796875
-4.68505859375,28.68505859375,79.8974609375,12.1025390625
-2.283203125,30.283203125,76.99560546875,11.00439453125
4.244873046875,35.755126953125,82.3642578125,17.6357421875
-3.335205078125,27.335205078125,68.30908203125,3.69091796875
-13.3250732421875,17.3250732421875,68.83837890625,3.16162109375
-13.97314453125,17.97314453125,63.64892578125,-3.64892578125
-13.3388671875,21.3388671875,84.27099609375,15.72900390625
-7.2152099609375,31.2152099609375,84.3076171875,15.6923828125
-3.1673583984375,39.1673583984375,73.62939453125,6.37060546875
-16.700439453125,28.700439453125,70.42724609375,5.57275390625
-17.4598388671875,29.4598388671875,75.111328125,12.888671875
-11.36865234375,35.36865234375,80.11279296875,19.88720703125
-20.619384765625,24.619384765625,61.68310546875,2.31689453125
-5.5531005859375,37.5531005859375,61.80078125,2.19921875
-16.4951171875,24.4951171875,80.20703125,19.79296875
-17.6326904296875,21.6326904296875,72.5361328125,11.4638671875
-12.989013671875,24.989013671875,64.482421875,3.517578125
1.5072021484375,38.4927978515625,79.9228515625,20.0771484375
-4.0797119140625,32.0797119140625,66.95849609375,9.04150390625
-3.7503662109375,31.7503662109375,59.85302734375,4.14697265625
-5.5552978515625,29.5552978515625,56.9150390625,3.0849609375
-5.5386962890625,29.5386962890625,66.365234375,13.634765625
-13.681884765625,21.681884765625,66.26025390625,13.73974609375
-13.8975830078125,21.8975830078125,74.4873046875,21.5126953125
-14.0584716796875,22.0584716796875,76.83935546875,23.16064453125
-4.0374755859375,32.0374755859375,57.12841796875,2.87158203125
-3.7379150390625,31.7379150390625,57.27197265625,2.72802734375
0.885986328125,35.114013671875,69.3046875,14.6953125
-4.1851806640625,28.1851806640625,69.34619140625,14.65380859375
-13.025146484375,17.025146484375,57.52197265625,2.47802734375
-5.7392578125,21.7392578125,65.904296875,10.095703125
3.577392578125,28.422607421875,64.4755859375,7.5244140625
4.852783203125,27.147216796875,65.13916015625,6.86083984375
4.0250244140625,23.9749755859375,71.7548828125,12.2451171875
5.01171875,22.98828125,60.20703125,-0.20703125
-0.2950439453125,16.2950439453125,70.44775390625,9.55224609375
-3.978759765625,11.978759765625,60.505859375,-0.505859375
5.9803466796875,22.0196533203125,66.455078125,5.544921875
-4.2421875,12.2421875,68.37353515625,7.62646484375
11.6553955078125,28.3446044921875,76.30224609375,15.69775390625
5.967529296875,22.032470703125,62.2451171875,1.7548828125
4.8236083984375,19.1763916015625,62.18408203125,1.81591796875
0.0928955078125,11.9071044921875,70.0986328125,9.9013671875
13.42822265625,22.57177734375,63.9814453125,4.0185546875
10.4034423828125,17.5965576171875,65.84423828125,6.15576171875
6.6842041015625,13.3157958984375,71.7236328125,12.2763671875
0.12841796875,7.87158203125,61.6884765625,2.3115234375
10.802490234375,21.197509765625,67.82666015625,8.17333984375
0.93310546875,15.06689453125,66.2001953125,5.7998046875
-7.16064453125,11.16064453125,66.8056640625,5.1943359375
4.8602294921875,27.1397705078125,61.55078125,-1.55078125
-6.713623046875,18.713623046875,78.298828125,13.701171875
6.2901611328125,33.7098388671875,74.9384765625,9.0615234375
-12.1080322265625,16.1080322265625,65.443359375,-1.443359375
3.968994140625,32.031005859375,63.8583984375,-3.8583984375
0.3355712890625,27.6644287109375,78.2275390625,9.7724609375
-7.139404296875,19.139404296875,72.53759765625,3.46240234375
-6.4742431640625,18.4742431640625,74.7119140625,5.2880859375
2.38525390625,25.61474609375,84.66845703125,15.33154296875
-2.5562744140625,18.5562744140625,68.39453125,-0.39453125
-1.4283447265625,17.4283447265625,67.9814453125,0.0185546875
-2.4635009765625,14.4635009765625,75.59521484375,8.40478515625
2.12548828125,17.87451171875,77.38427734375,10.61572265625
4.271484375,19.728515625,75.3935546875,8.6064453125
2.08740234375,17.91259765625,71.5400390625,4.4599609375
3.78857421875,20.21142578125,73.66015625,6.33984375
7.5614013671875,24.4385986328125,71.61083984375,4.38916015625
1.483154296875,18.516845703125,75.3564453125,8.6435546875
-4.457763671875,12.457763671875,66.99169921875,1.00830078125
11.7205810546875,28.2794189453125,80.6884765625,15.3115234375
4.052001953125,19.947998046875,78.58935546875,13.41064453125
-5.41845703125,9.41845703125,64.70947265625,-0.70947265625
-4.730712890625,8.730712890625,68.92822265625,3.07177734375
3.9288330078125,16.0711669921875,79.0703125,12.9296875
2.301025390625,13.698974609375,71.01708984375,4.98291015625
6.2113037109375,17.7886962890625,80.767578125,15.232421875
-0.3035888671875,12.3035888671875,72.4248046875,7.5751953125
0.988037109375,15.011962890625,70.11376953125,5.88623046875
-5.6309814453125,9.6309814453125,69.91748046875,6.08251953125
0.016357421875,15.983642578125,67.8359375,4.1640625
3.930419921875,20.069580078125,81.80029296875,18.19970703125
3.978271484375,20.021728515625,73.70556640625,10.29443359375
0.003662109375,15.996337890625,63.4658203125,0.5341796875
-6.0667724609375,10.0667724609375,69.0625,6.9375
9.84912109375,26.15087890625,80.57275390625,19.42724609375
-2.0145263671875,14.0145263671875,70.166015625,9.833984375
6.6331787109375,21.3668212890625,60.03466796875,-0.03466796875
-2.001953125,10.001953125,74.2646484375,13.7353515625
6.1005859375,13.8994140625,78.73095703125,17.26904296875
18.802978515625,21.197021484375,81.11669921875,18.88330078125
9.9775390625,6.0224609375,71.09228515625,8.90771484375
9.6580810546875,-1.6580810546875,68.54736328125,7.45263671875
16.0269775390625,-4.0269775390625,61.71240234375,2.28759765625
19.24755859375,-11.24755859375,61.06201171875,2.93798828125
37.34619140625,-5.34619140625,79.05126953125,20.94873046875
32.2908935546875,-24.2908935546875,77.82177734375,18.17822265625
50.2139892578125,-22.2139892578125,61.0830078125,-1.0830078125
63.54736328125,-27.54736328125,70.24365234375,5.75634765625
66.9105224609375,-46.9105224609375,62.748046875,-2.748046875
86.7471923828125,-54.7471923828125,70.396484375,5.603515625
106.9195556640625,-66.9195556640625,79.451171875,16.548828125
112.526123046875,-96.526123046875,60.44775390625,-0.44775390625
126.145263671875,-118.145263671875,79.86279296875,20.13720703125
154.427490234375,-122.427490234375,63.84912109375,4.15087890625
166.6629638671875,-138.6629638671875,74.1953125,13.8046875
174.95703125,-154.95703125,66.5244140625,5.4755859375
181.8992919921875,-169.8992919921875,72.58544921875,11.41455078125
197.9912109375,-173.9912109375,64.443359375,3.556640625
213.2108154296875,-177.2108154296875,74.4208984375,13.5791015625
204.9552001953125,-200.9552001953125,80.86328125,19.13671875
216.349853515625,-200.349853515625,65.87939453125,2.12060546875
228.712646484375,-192.712646484375,71.25439453125,4.74560546875
211.9471435546875,-207.9471435546875,80.57568359375,11.42431640625
208.662109375,-204.662109375,71.47900390625,0.52099609375
221.948486328125,-181.948486328125,79.841796875,8.158203125
206.878173828125,-186.878173828125,73.8017578125,2.1982421875
193.994140625,-189.994140625,85.62109375,14.37890625
193.1053466796875,-181.1053466796875,79.53076171875,8.46923828125
185.5439453125,-177.5439453125,81.65380859375,10.34619140625
180.7066650390625,-168.7066650390625,70.01220703125,-2.01220703125
176.5208740234375,-156.5208740234375,70.578125,-2.578125
177.5433349609375,-137.5433349609375,87.28662109375,12.71337890625
152.684814453125,-144.684814453125,74.04150390625,-2.04150390625
142.7490234375,-138.7490234375,84.716796875,7.283203125
152.06884765625,-116.06884765625,81.20361328125,2.79638671875
140.39990234375,-116.39990234375,73.46484375,-5.46484375
131.1065673828125,-115.1065673828125,71.57470703125,-7.57470703125
119.50927734375,-115.50927734375,75.69775390625,-3.69775390625
117.188232421875,-105.188232421875,71.99609375,-7.99609375
116.101806640625,-92.101806640625,70.53466796875,-10.53466796875
110.49609375,-82.49609375,79.23486328125,-3.23486328125
98.7108154296875,-78.7108154296875,73.92724609375,-9.92724609375
95.0286865234375,-67.0286865234375,72.45068359375,-12.45068359375
93.6168212890625,-53.6168212890625,78.7158203125,-6.7158203125
82.5765380859375,-50.5765380859375,74.7060546875,-10.7060546875
77.9930419921875,-41.9930419921875,84.431640625,-0.431640625
69.953125,-37.953125,77.9111328125,-5.9111328125
68.5068359375,-28.5068359375,87.193359375,4.806640625
59.6331787109375,-27.6331787109375,84.396484375,3.603515625
41.2451171875,-37.2451171875,89.70458984375,10.29541015625
49.2353515625,-21.2353515625,69.3056640625,-9.3056640625
49.5384521484375,-13.5384521484375,69.30859375,-9.30859375
46.1588134765625,-10.1588134765625,81.6806640625,2.3193359375
27.1563720703125,-23.1563720703125,88.26123046875,7.73876953125
28.583984375,-16.583984375,72.8369140625,-8.8369140625
40.4271240234375,-0.4271240234375,81.2431640625,-1.2431640625
36.5849609375,-0.5849609375,83.44091796875,0.55908203125
22.924560546875,-10.924560546875,83.53271484375,0.46728515625
25.3492431640625,-5.3492431640625,79.6904296875,-3.6904296875
29.8409423828125,2.1590576171875,90.06591796875,5.93408203125
16.4521484375,-8.4521484375,90.7216796875,5.2783203125
31.242431640625,8.757568359375,81.6201171875,-5.6201171875
12.2138671875,-8.2138671875,82.6611328125,-6.6611328125
27.2733154296875,8.7266845703125,85.72802734375,-5.72802734375
10.2510986328125,-6.2510986328125,84.7158203125,-8.7158203125
12.97021484375,-0.97021484375,89.5400390625,-5.5400390625
21.333984375,10.666015625,96.12060546875,-0.12060546875
7.3834228515625,0.6165771484375,86.361328125,-10.361328125
19.2762451171875,16.7237548828125,94.1591796875,-2.1591796875
1.2020263671875,2.7979736328125,89.45263671875,-5.45263671875
5.306884765625,10.693115234375,78.2822265625,-14.2822265625
9.6864013671875,18.3135986328125,82.8134765625,-6.8134765625
-3.5604248046875,7.5604248046875,77.3046875,-9.3046875
9.6981201171875,22.3018798828125,82.01953125,-2.01953125
11.5665283203125,24.4334716796875,91.1533203125,8.8466796875
8.013671875,19.986328125,84.779296875,3.220703125
4.808837890625,15.191162109375,74.845703125,-6.845703125
11.579345703125,20.420654296875,79.21728515625,-3.21728515625
13.947998046875,22.052001953125,71.73681640625,-11.73681640625
11.677734375,20.322265625,84.28662109375,-0.28662109375
-3.2642822265625,7.2642822265625,84.81201171875,-0.81201171875
11.2757568359375,24.7242431640625,77.3046875,-9.3046875
-2.4212646484375,14.4212646484375,79.767578125,-7.767578125
1.9945068359375,22.0054931640625,84.208984375,-4.208984375
-7.1141357421875,15.1141357421875,90.65380859375,1.34619140625
-3.4697265625,19.4697265625,87.142578125,-3.142578125
3.0086669921875,24.9913330078125,75.7119140625,-15.7119140625
8.1468505859375,27.8531494140625,94.35302734375,1.64697265625
-4.4493408203125,12.4493408203125,82.978515625,-10.978515625
12.7252197265625,27.2747802734375,93.4169921875,-1.4169921875
5.2281494140625,18.7718505859375,79.46484375,-15.46484375
8.813232421875,23.186767578125,88.98291015625,-4.98291015625
9.518310546875,26.481689453125,87.9990234375,-3.9990234375
9.6656494140625,30.3343505859375,92.73583984375,3.26416015625
-6.2379150390625,18.2379150390625,81.53125,-5.53125
-1.6722412109375,25.6722412109375,84.677734375,-0.677734375
5.7130126953125,34.2869873046875,76.2646484375,-8.2646484375
-12.0284423828125,16.0284423828125,88.11328125,3.88671875
4.8372802734375,31.1627197265625,75.86376953125,-7.86376953125
-10.1680908203125,14.1680908203125,85.1728515625,2.8271484375
-3.5377197265625,19.5377197265625,79.93408203125,0.06591796875
-9.5823974609375,13.5823974609375,80.37158203125,3.62841796875
5.6773681640625,30.3226318359375,72.9580078125,-0.9580078125
-5.513427734375,21.513427734375,66.16552734375,-6.16552734375
3.25927734375,32.74072265625,74.20556640625,1.79443359375
-3.562744140625,27.562744140625,70.91357421875,-2.91357421875
-13.64501953125,17.64501953125,83.83740234375,8.16259765625
-6.881103515625,22.881103515625,88.49560546875,11.50439453125
-7.4337158203125,19.4337158203125,78.61962890625,1.38037109375
-5.6629638671875,17.6629638671875,82.25439453125,5.74560546875
-5.9822998046875,13.9822998046875,75.6787109375,0.3212890625
1.28515625,18.71484375,85.21240234375,10.78759765625
-4.031494140625,12.031494140625,77.0361328125,2.9638671875
10.034423828125,25.965576171875,85.1083984375,10.8916015625
9.5638427734375,26.4361572265625,85.2236328125,10.7763671875
4.7462158203125,23.2537841796875,81.154296875,6.845703125
5.88525390625,26.11474609375,86.798828125,13.201171875
-0.6458740234375,20.6458740234375,86.2421875,13.7578125
7.480712890625,28.519287109375,85.7109375,14.2890625
2.394287109375,21.605712890625,85.46240234375,14.53759765625
3.92529296875,20.07470703125,79.65625,8.34375
13.6324462890625,26.3675537109375,66.28515625,-6.28515625
-1.0283203125,9.0283203125,79.18701171875,4.81298828125
9.5162353515625,18.4837646484375,74.11181640625,-2.11181640625
7.12109375,16.87890625,72.82666015625,-4.82666015625
1.9736328125,14.0263671875,81.1875,2.8125
4.5142822265625,19.4857177734375,71.185546875,-7.185546875
-0.7340087890625,16.7340087890625,70.9375,-6.9375
4.64013671875,23.35986328125,74.630859375,-2.630859375
-3.2108154296875,15.2108154296875,70.4345703125,-6.4345703125
-2.4398193359375,14.4398193359375,78.39453125,1.60546875
2.566650390625,17.433349609375,84.37890625,7.62109375
-2.63818359375,10.63818359375,72.12646484375,-4.12646484375
9.627197265625,22.372802734375,73.38525390625,-1.38525390625
9.2891845703125,22.7108154296875,68.091796875,-4.091796875
-1.4810791015625,13.4810791015625,70.47607421875,1.52392578125
5.644287109375,22.355712890625,79.0205078125,12.9794921875
5.0224609375,22.9775390625,76.26904296875,11.73095703125
2.9219970703125,21.0780029296875,66.5791015625,1.4208984375
-0.5718994140625,16.5718994140625,81.9521484375,14.0478515625
4.4014892578125,19.5985107421875,68.021484375,-4.021484375
11.5157470703125,24.4842529296875,78.22216796875,1.77783203125
-1.6121826171875,9.6121826171875,80.02392578125,-0.02392578125
12.73095703125,23.26904296875,91.14111328125,8.85888671875
6.4520263671875,17.5479736328125,83.5908203125,0.4091796875
11.6480712890625,24.3519287109375,91.603515625,8.396484375
12.534912109375,27.465087890625,87.45458984375,4.54541015625
11.3743896484375,28.6256103515625,77.306640625,-5.306640625
-7.5927734375,11.5927734375,73.138671875,-9.138671875
-2.203369140625,18.203369140625,82.78125,1.21875
-2.4266357421875,18.4266357421875,78.04638671875,-2.04638671875
1.619384765625,22.380615234375,88.88525390625,11.11474609375
-6.2850341796875,14.2850341796875,71.4736328125,-3.4736328125
-0.343994140625,20.343994140625,78.17236328125,5.82763671875
7.3690185546875,28.6309814453125,77.3740234375,6.6259765625
-3.047119140625,19.047119140625,65.31982421875,-5.31982421875
0.6041259765625,23.3958740234375,74.00634765625,1.99365234375
4.4598388671875,27.5401611328125,73.20556640625,-1.20556640625
6.4822998046875,29.5177001953125,82.5810546875,5.4189453125
8.4578857421875,31.5421142578125,77.84130859375,-1.84130859375
6.130859375,29.869140625,74.83349609375,-6.83349609375
-4.6243896484375,20.6243896484375,81.55078125,-1.55078125
-7.6956787109375,19.6956787109375,88.06103515625,3.93896484375
-10.7423095703125,18.7423095703125,74.416015625,-10.416015625
-13.325927734375,17.325927734375,76.60693359375,-8.60693359375
-11.1102294921875,19.1102294921875,90.58154296875,5.41845703125
3.955078125,32.044921875,78.2734375,-6.2734375
-8.4281005859375,16.4281005859375,85.646484375,2.353515625
-2.7958984375,18.7958984375,76.7119140625,-4.7119140625
2.3311767578125,21.6688232421875,73.560546875,-5.560546875
-7.316162109375,11.316162109375,70.38427734375,-6.38427734375
0.3333740234375,19.6666259765625,85.47216796875,10.52783203125
3.5816650390625,24.4183349609375,69.15380859375,-5.15380859375
2.727294921875,25.272705078125,87.66259765625,12.33740234375
-4.106201171875,20.106201171875,81.0107421875,2.9892578125
-6.9854736328125,18.9854736328125,70.919921875,-10.919921875
-10.02490234375,18.02490234375,84.89453125,-0.89453125
-11.2303466796875,19.2303466796875,84.40869140625,-4.40869140625
-10.4466552734375,22.4466552734375,77.119140625,-13.119140625
-13.468994140625,21.468994140625,86.98681640625,-2.98681640625
-0.21484375,36.21484375,80.26171875,-8.26171875
-10.7943115234375,26.7943115234375,75.33349609375,-11.33349609375
-13.4266357421875,25.4266357421875,74.5869140625,-10.5869140625
-14.240478515625,26.240478515625,84.2939453125,-0.2939453125
-19.1195068359375,23.1195068359375,72.59423828125,-12.59423828125
-1.7132568359375,41.7132568359375,91.49365234375,4.50634765625
-1.613037109375,41.613037109375,86.84326171875,-2.84326171875
-6.586181640625,34.586181640625,80.33642578125,-12.33642578125
-14.7237548828125,22.7237548828125,81.5712890625,-13.5712890625
-8.41845703125,24.41845703125,84.21044921875,-12.21044921875
3.792236328125,32.207763671875,86.13818359375,-10.13818359375
3.4417724609375,28.5582275390625,81.53466796875,-13.53466796875
8.2801513671875,31.7198486328125,78.78857421875,-14.78857421875
-5.6822509765625,17.6822509765625,80.2919921875,-12.2919921875
1.758056640625,26.241943359375,92.25634765625,-0.25634765625
4.9052734375,31.0947265625,76.625,-16.625
6.080322265625,33.919677734375,91.14111328125,-3.14111328125
-4.45458984375,24.45458984375,95.50537109375,0.49462890625
5.4268798828125,34.5731201171875,97.54345703125,2.45654296875
-0.34619140625,28.34619140625,93.28466796875,-1.28466796875
1.974853515625,30.025146484375,90.93408203125,-2.93408203125
-7.9161376953125,19.9161376953125,96.76220703125,3.23779296875
-12.202880859375,16.202880859375,80.97998046875,-12.97998046875
-12.8232421875,16.8232421875,79.64599609375,-15.64599609375
-9.4844970703125,21.4844970703125,82.64453125,-14.64453125
-3.8154296875,27.8154296875,91.71923828125,-7.71923828125
2.4207763671875,33.5792236328125,88.57861328125,-12.57861328125
-6.8154296875,22.8154296875,84.99267578125,-16.99267578125
0.178466796875,27.821533203125,88.86328125,-12.86328125
5.0164794921875,30.9835205078125,100.236328125,-0.236328125
-4.5572509765625,20.5572509765625,87.283203125,-11.283203125
-8.540771484375,16.540771484375,94.2626953125,-2.2626953125
3.30322265625,28.69677734375,79.45361328125,-15.45361328125
-4.7335205078125,20.7335205078125,97.06689453125,2.93310546875
-4.517333984375,20.517333984375,85.13818359375,-9.13818359375
1.816650390625,26.183349609375,83.5048828125,-11.5048828125
-4.0518798828125,20.0518798828125,83.87451171875,-11.87451171875
5.6097412109375,30.3902587890625,91.9794921875,-3.9794921875
-7.1800537109375,19.1800537109375,83.7197265625,-11.7197265625
-4.05908203125,24.05908203125,95.20556640625,0.79443359375
-12.50732421875,16.50732421875,92.68212890625,-0.68212890625
-4.1746826171875,24.1746826171875,92.3681640625,-0.3681640625
-11.138671875,15.138671875,96.30517578125,3.69482421875
-9.9130859375,13.9130859375,84.3232421875,-8.3232421875
8.822998046875,31.177001953125,82.13525390625,-10.13525390625
-3.400634765625,19.400634765625,85.50341796875,-5.50341796875
-2.57568359375,22.57568359375,84.37255859375,-4.37255859375
-10.2076416015625,18.2076416015625,78.88818359375,-6.88818359375
-9.580078125,21.580078125,75.3173828125,-7.3173828125
-0.125244140625,32.125244140625,69.9228515625,-9.9228515625
2.3016357421875,33.6983642578125,78.87841796875,1.12158203125
5.40869140625,34.59130859375,86.24609375,9.75390625
-5.3104248046875,21.3104248046875,67.99169921875,-7.99169921875
-10.2633056640625,14.2633056640625,74.02294921875,-2.02294921875
6.4466552734375,29.5533447265625,78.2080078125,1.7919921875
7.0169677734375,28.9830322265625,80.4091796875,3.5908203125
-6.244873046875,14.244873046875,86.4970703125,9.5029296875
4.810791015625,23.189208984375,70.39697265625,-6.39697265625
12.009033203125,27.990966796875,86.11962890625,9.88037109375
4.88037109375,19.11962890625,71.76806640625,-3.76806640625
-3.1007080078125,11.1007080078125,81.50390625,6.49609375
-4.223388671875,12.223388671875,87.46044921875,12.53955078125
7.6514892578125,28.3485107421875,71.66845703125,-3.66845703125
-10.9454345703125,14.9454345703125,82.041015625,5.958984375
-3.3121337890625,27.3121337890625,82.42431640625,5.57568359375
-4.8670654296875,28.8670654296875,70.7158203125,-6.7158203125
-9.3580322265625,25.3580322265625,86.95654296875,9.04345703125
-14.919189453125,18.919189453125,87.32080078125,8.67919921875
0.0225830078125,31.9774169921875,81.99169921875,2.00830078125
-1.05712890625,29.05712890625,78.98583984375,-2.98583984375
-12.584716796875,16.584716796875,72.05126953125,-12.05126953125
1.26904296875,30.73095703125,92.72900390625,7.27099609375
2.637451171875,33.362548828125,76.556640625,-8.556640625
-2.1102294921875,30.1102294921875,85.30224609375,2.69775390625
-6.539306640625,26.539306640625,89.1005859375,10.8994140625
-0.3428955078125,32.3428955078125,74.40771484375,1.59228515625
0.5123291015625,31.4876708984375,83.82275390625,16.17724609375
3.7567138671875,32.2432861328125,67.85205078125,4.14794921875
6.9268798828125,33.0731201171875,72.74169921875,11.25830078125
-8.427001953125,16.427001953125,74.42822265625,13.57177734375
-10.5364990234375,14.5364990234375,60.62548828125,-0.62548828125
-9.305419921875,17.305419921875,66.96826171875,5.03173828125
-2.355712890625,26.355712890625,63.16357421875,0.83642578125
4.8021240234375,35.1978759765625,79.068359375,16.931640625
-9.4422607421875,21.4422607421875,66.6904296875,5.3095703125
-10.9647216796875,18.9647216796875,72.126953125,11.873046875
2.0321044921875,29.9678955078125,65.47998046875,6.52001953125
-10.9154052734375,14.9154052734375,72.791015625,15.208984375
-8.3470458984375,16.3470458984375,68.0576171875,11.9423828125
-4.6298828125,20.6298828125,65.31103515625,10.68896484375
6.224609375,33.775390625,60.68408203125,7.31591796875
-3.4093017578125,27.4093017578125,76.39990234375,23.60009765625
-8.9228515625,24.9228515625,70.6728515625,17.3271484375
0.2628173828125,35.7371826171875,65.576171875,10.423828125
-1.555908203125,33.555908203125,66.96337890625,9.03662109375
-4.5,28.5,60.4970703125,-0.4970703125
0.951416015625,31.048583984375,77.74853515625,14.25146484375
-11.8238525390625,15.8238525390625,74.33642578125,9.66357421875
4.6939697265625,31.3060302734375,78.0634765625,13.9365234375
-9.6361083984375,17.6361083984375,65.02783203125,2.97216796875
-4.58349609375,24.58349609375,77.630859375,18.369140625
-13.705322265625,17.705322265625,64.47119140625,7.52880859375
-12.5849609375,20.5849609375,70.11083984375,13.88916015625
-1.0322265625,33.0322265625,70.83984375,13.16015625
-13.1240234375,21.1240234375,60.54150390625,-0.54150390625
-1.0955810546875,33.0955810546875,64.74658203125,-0.74658203125
-15.1668701171875,19.1668701171875,64.83837890625,-4.83837890625
-13.416259765625,21.416259765625,74.298828125,1.701171875
-5.7703857421875,29.7703857421875,86.89306640625,13.10693359375
-8.0947265625,28.0947265625,72.71875,-0.71875
-6.307861328125,30.307861328125,76.08544921875,3.91455078125
-8.4364013671875,28.4364013671875,73.3232421875,2.6767578125
-12.5732421875,24.5732421875,76.6416015625,7.3583984375
-8.7757568359375,28.7757568359375,78.11865234375,9.88134765625
-5.0086669921875,33.0086669921875,65.7841796875,-1.7841796875
-9.161865234375,29.161865234375,63.6826171875,-3.6826171875
-11.12890625,27.12890625,73.85595703125,6.14404296875
-8.8812255859375,28.8812255859375,66.27880859375,-2.27880859375
-4.478271484375,32.478271484375,78.8037109375,9.1962890625
-6.02978515625,30.02978515625,67.2021484375,-3.2021484375
-3.64208984375,31.64208984375,67.27001953125,-3.27001953125
0.6121826171875,35.3878173828125,76.94287109375,7.05712890625
-11.306884765625,23.306884765625,72.3515625,3.6484375
-1.40234375,33.40234375,63.75830078125,-3.75830078125
2.37548828125,37.62451171875,77.40966796875,10.59033203125
-13.8616943359375,21.8616943359375,83.41162109375,16.58837890625
0.0264892578125,35.9735107421875,73.69970703125,6.30029296875
-11.854248046875,23.854248046875,64.111328125,-4.111328125
-9.495361328125,25.495361328125,66.4951171875,-2.4951171875
-3.004150390625,31.004150390625,78.7626953125,9.2373046875
-4.5694580078125,28.5694580078125,74.8896484375,5.1103515625
-2.3953857421875,30.3953857421875,72.8916015625,3.1083984375
-4.643798828125,28.643798828125,76.82373046875,7.17626953125
-1.396240234375,33.396240234375,84.77783203125,15.22216796875
-10.6370849609375,26.6370849609375,76.86669921875,7.13330078125
-12.2403564453125,28.2403564453125,83.18505859375,12.81494140625
-3.9678955078125,39.9678955078125,75.76904296875,4.23095703125
-7.5059814453125,39.5059814453125,68.58740234375,-4.58740234375
-4.5516357421875,44.5516357421875,77.556640625,2.443359375
-12.92529296875,36.92529296875,88.5791015625,11.4208984375
-4.6558837890625,44.6558837890625,77.54052734375,-1.54052734375
-15.975830078125,31.975830078125,86.31689453125,5.68310546875
-3.2239990234375,43.2239990234375,90.77197265625,9.22802734375
-6.6939697265625,38.6939697265625,90.7998046875,9.2001953125
-10.5125732421875,34.5125732421875,90.38720703125,9.61279296875
-10.6171875,34.6171875,71.6484375,-7.6484375
-8.8438720703125,36.8438720703125,70.7998046875,-6.7998046875
-9.0517578125,37.0517578125,74.076171875,-2.076171875
-19.1961669921875,27.1961669921875,83.65576171875,8.34423828125
-5.30224609375,41.30224609375,73.623046875,-1.623046875
-15.396484375,31.396484375,85.99560546875,10.00439453125
-3.4471435546875,43.4471435546875,70.748046875,-6.748046875
-9.3800048828125,37.3800048828125,77.80712890625,-1.80712890625
-19.1385498046875,27.1385498046875,91.025390625,8.974609375
-4.753173828125,40.753173828125,92.1728515625,7.8271484375
-18.3472900390625,26.3472900390625,86.99267578125,1.00732421875
-16.072265625,28.072265625,75.32421875,-11.32421875
-4.0126953125,40.0126953125,91.2021484375,4.7978515625
-10.1173095703125,34.1173095703125,78.873046875,-6.873046875
-20.2427978515625,24.2427978515625,76.67138671875,-8.67138671875
-18.2696533203125,26.2696533203125,74.828125,-10.828125
-8.208984375,36.208984375,73.31787109375,-13.31787109375
-12.20166015625,32.20166015625,73.87353515625,-13.87353515625
-10.412109375,34.412109375,90.1435546875,1.8564453125
-14.91015625,30.91015625,77.91943359375,-9.91943359375
-19.6265869140625,27.6265869140625,81.27685546875,-5.27685546875
-4.39208984375,44.39208984375,92.52490234375,7.47509765625
-23.0125732421875,27.0125732421875,82.0244140625,-2.0244140625
-19.3369140625,31.3369140625,81.9619140625,-1.9619140625
-15.30078125,35.30078125,84.25146484375,-0.25146484375
-14.955322265625,34.955322265625,88.599609375,3.400390625
-10.4691162109375,38.4691162109375,78.68994140625,-6.68994140625
-16.099853515625,32.099853515625,80.35107421875,-4.35107421875
-6.1246337890625,42.1246337890625,83.63818359375,0.36181640625
-6.7386474609375,42.7386474609375,70.79638671875,-10.79638671875
-15.9290771484375,35.9290771484375,72.154296875,-8.154296875
-23.409912109375,31.409912109375,81.99658203125,2.00341796875
-26.691162109375,30.691162109375,82.4775390625,1.5224609375
-13.3017578125,45.3017578125,71.57421875,-11.57421875
-25.05029296875,33.05029296875,73.10205078125,-13.10205078125
-18.1656494140625,38.1656494140625,74.75634765625,-14.75634765625
-25.198486328125,29.198486328125,94.18701171875,1.81298828125
-24.7210693359375,28.7210693359375,79.1005859375,-15.1005859375
-21.0,33.0,83.35595703125,-11.35595703125
-25.84423828125,29.84423828125,95.02587890625,0.97412109375
-8.7225341796875,48.7225341796875,86.37255859375,-6.37255859375
-13.082275390625,45.082275390625,75.75341796875,-15.75341796875
-12.64453125,44.64453125,83.4794921875,-7.4794921875
-21.51611328125,33.51611328125,95.6943359375,4.3056640625
-22.066162109375,30.066162109375,78.3173828125,-14.3173828125
-12.7015380859375,36.7015380859375,81.087890625,-13.087890625
-3.690185546875,43.690185546875,97.70654296875,2.29345703125
-19.09765625,27.09765625,81.9873046875,-13.9873046875
-8.842529296875,36.842529296875,81.962890625,-13.962890625
-4.76220703125,40.76220703125,93.86376953125,-1.86376953125
-12.669677734375,32.669677734375,82.01708984375,-14.01708984375
-12.393310546875,32.393310546875,98.68798828125,1.31201171875
-19.8330078125,23.8330078125,95.9443359375,-3.9443359375
-17.0142822265625,25.0142822265625,87.5986328125,-15.5986328125
-0.10205078125,40.10205078125,83.244140625,-23.244140625
-3.3443603515625,35.3443603515625,92.39501953125,-16.39501953125
-16.9593505859375,20.9593505859375,98.6728515625,-10.6728515625
-11.0267333984375,27.0267333984375,87.95556640625,-19.95556640625
-1.44970703125,37.44970703125,90.4580078125,-14.4580078125
-16.01025390625,24.01025390625,84.6630859375,-16.6630859375
-6.4593505859375,34.4593505859375,95.13232421875,-3.13232421875
-8.610107421875,32.610107421875,78.28076171875,-18.28076171875
-18.3875732421875,22.3875732421875,80.22412109375,-16.22412109375
-17.8460693359375,21.8460693359375,90.78271484375,-6.78271484375
-3.138427734375,35.138427734375,89.62744140625,-9.62744140625
-0.460205078125,36.460205078125,84.46044921875,-16.46044921875
-15.982177734375,19.982177734375,95.1328125,-7.1328125
-13.782470703125,21.782470703125,91.64013671875,-11.64013671875
-7.803955078125,27.803955078125,96.04931640625,-8.04931640625
-7.8614501953125,27.8614501953125,100.421875,-4.421875
-11.71435546875,23.71435546875,98.77294921875,-6.77294921875
-7.176025390625,27.176025390625,95.07568359375,-11.07568359375
-2.219482421875,30.219482421875,103.28076171875,-3.28076171875
-3.0150146484375,27.0150146484375,101.32763671875,-5.32763671875
2.116943359375,29.883056640625,89.150390625,-17.150390625
-11.1510009765625,15.1510009765625,84.69091796875,-20.69091796875
-4.9932861328125,20.9932861328125,95.94677734375,-7.94677734375
4.65576171875,31.34423828125,91.01025390625,-11.01025390625
-11.95654296875,15.95654296875,84.0859375,-16.0859375
-4.55859375,24.55859375,87.42919921875,-11.42919921875
-2.9873046875,26.9873046875,79.2265625,-19.2265625
2.7872314453125,33.2127685546875,99.4814453125,0.5185546875
0.7615966796875,31.2384033203125,94.00537109375,-6.00537109375
2.9927978515625,33.0072021484375,90.51318359375,-10.51318359375
-12.3916015625,16.3916015625,86.78125,-14.78125
4.690673828125,31.309326171875,88.75927734375,-12.75927734375
-9.8780517578125,13.8780517578125,94.5859375,-6.5859375
-2.4671630859375,18.4671630859375,82.513671875,-18.513671875
0.4254150390625,19.5745849609375,82.78955078125,-18.78955078125
8.4296875,27.5703125,99.54638671875,-3.54638671875
-8.4649658203125,12.4649658203125,94.75048828125,-10.75048828125
-3.8394775390625,19.8394775390625,92.19921875,-16.19921875
-7.0091552734375,19.0091552734375,93.59423828125,-17.59423828125
6.6580810546875,33.3419189453125,86.6328125,-26.6328125
3.4083251953125,28.5916748046875,87.095703125,-27.095703125
0.9503173828125,23.0496826171875,104.896484375,-8.896484375
10.5673828125,29.4326171875,100.08251953125,-12.08251953125
-6.5611572265625,10.5611572265625,86.8134765625,-22.8134765625
5.01904296875,22.98095703125,101.31005859375,-5.31005859375
-8.7127685546875,12.7127685546875,89.7998046875,-13.7998046875
2.747314453125,29.252685546875,90.45068359375,-10.45068359375
-11.8131103515625,19.8131103515625,95.34228515625,-3.34228515625
-15.671630859375,19.671630859375,82.462890625,-14.462890625
-16.439453125,20.439453125,89.744140625,-5.744140625
-4.1441650390625,32.1441650390625,83.1171875,-11.1171875
-5.1414794921875,29.1414794921875,94.560546875,1.439453125
2.0599365234375,33.9400634765625,82.11181640625,-10.11181640625
-5.017822265625,25.017822265625,93.83447265625,2.16552734375
-0.6627197265625,28.6627197265625,85.7529296875,-5.7529296875
-12.8656005859375,16.8656005859375,89.81005859375,-1.81005859375
0.67529296875,31.32470703125,75.88720703125,-15.88720703125
-5.57421875,25.57421875,93.87548828125,2.12451171875
-5.216552734375,25.216552734375,93.75537109375,2.24462890625
-4.1392822265625,24.1392822265625,91.61767578125,0.38232421875
-8.60009765625,16.60009765625,83.609375,-7.609375
-9.127197265625,13.127197265625,75.83447265625,-15.83447265625
-0.2835693359375,20.2835693359375,94.2607421875,1.7392578125
-4.4105224609375,16.4105224609375,82.70263671875,-10.70263671875
-3.477294921875,19.477294921875,78.87939453125,-14.87939453125
6.906982421875,33.093017578125,76.5576171875,-16.5576171875
1.338623046875,30.661376953125,79.70361328125,-11.70361328125
-1.5948486328125,29.5948486328125,92.5341796875,3.4658203125
-7.503173828125,23.503173828125,79.4306640625,-7.4306640625
3.674072265625,32.325927734375,72.69580078125,-12.69580078125
-0.3695068359375,24.3695068359375,92.3046875,7.6953125
3.7645263671875,24.2354736328125,83.81884765625,0.18115234375
-0.607421875,16.607421875,86.53759765625,5.46240234375
-1.96728515625,13.96728515625,79.8134765625,4.1865234375
11.6346435546875,28.3653564453125,83.349609375,16.650390625
2.6162109375,21.3837890625,73.31494140625,18.68505859375
7.679931640625,28.320068359375,68.224609375,27.775390625
7.5057373046875,28.4942626953125,58.69091796875,33.30908203125
2.466796875,21.533203125,53.19775390625,42.80224609375
8.50439453125,23.49560546875,44.0087890625,47.9912109375
3.1978759765625,12.8021240234375,23.212890625,40.787109375
15.981201171875,20.018798828125,18.80615234375,49.19384765625
2.3663330078125,1.6336669921875,14.75048828125,57.24951171875
10.08349609375,5.91650390625,7.02001953125,60.97998046875
9.0865478515625,2.9134521484375,11.65576171875,76.34423828125
21.4775390625,14.5224609375,0.841796875,75.158203125
21.4166259765625,14.5833740234375,-7.0927734375,75.0927734375
11.0572509765625,4.9427490234375,-1.787109375,85.787109375
10.529296875,5.470703125,4.9443359375,95.0556640625
7.9656982421875,4.0343017578125,4.94091796875,95.05908203125
3.5423583984375,0.4576416015625,-8.3251953125,80.3251953125
3.4598388671875,0.5401611328125,-3.58837890625,83.58837890625
21.8404541015625,18.1595458984375,-1.49560546875,85.49560546875
4.5975341796875,-0.5975341796875,-6.33203125,82.33203125
15.40185546875,8.59814453125,-9.9111328125,81.9111328125
19.80810546875,12.19189453125,-17.705078125,77.705078125
17.4794921875,10.5205078125,0.87744140625,99.12255859375
14.3818359375,9.6181640625,-19.8125,79.8125
14.816650390625,13.183349609375,-7.81396484375,91.81396484375
1.2806396484375,2.7193603515625,-3.50927734375,95.50927734375
14.21923828125,17.78076171875,-9.3896484375,89.3896484375
-0.1944580078125,4.1944580078125,-11.77001953125,87.77001953125
3.85400390625,8.14599609375,-0.607421875,100.607421875
5.922607421875,10.077392578125,-11.52294921875,91.52294921875
3.553466796875,8.446533203125,-8.01220703125,96.01220703125
2.5325927734375,9.4674072265625,-19.7275390625,83.7275390625
5.0155029296875,14.9844970703125,-6.68359375,94.68359375
-2.5335693359375,10.5335693359375,-17.267578125,81.267578125
-5.5819091796875,9.5819091796875,-10.05517578125,86.05517578125
12.19580078125,27.80419921875,-7.53125,87.53125
12.7291259765625,27.2708740234375,-15.86669921875,79.86669921875
1.5511474609375,14.4488525390625,-4.85498046875,92.85498046875
12.018310546875,23.981689453125,-0.03076171875,100.03076171875
9.6436767578125,22.3563232421875,-16.92138671875,84.92138671875
-5.6378173828125,9.6378173828125,-11.29833984375,91.29833984375
10.550048828125,29.449951171875,-9.3193359375,93.3193359375
4.7947998046875,27.2052001953125,-13.4560546875,89.4560546875
-4.4146728515625,20.4146728515625,-20.24462890625,84.24462890625
3.1136474609375,28.8863525390625,-7.95166015625,99.95166015625
-2.7423095703125,22.7423095703125,-20.3515625,92.3515625
7.706787109375,32.293212890625,-12.7587890625,104.7587890625
6.1207275390625,29.8792724609375,-28.326171875,92.326171875
6.2822265625,29.7177734375,-28.47900390625,92.47900390625
-3.837646484375,19.837646484375,-19.2109375,99.2109375
5.8974609375,30.1025390625,-15.087890625,99.087890625
-0.3155517578125,24.3155517578125,-4.94775390625,104.94775390625
1.67138671875,26.32861328125,-17.47314453125,89.47314453125
5.888427734375,30.111572265625,-12.8896484375,92.8896484375
-1.762939453125,21.762939453125,-2.923828125,102.923828125
-5.4774169921875,17.4774169921875,-7.01953125,99.01953125
-1.482666015625,21.482666015625,-12.6728515625,92.6728515625
-7.9503173828125,15.9503173828125,-11.67724609375,91.67724609375
-10.9200439453125,14.9200439453125,-20.173828125,80.173828125
3.74658203125,32.25341796875,-4.51171875,92.51171875
-3.641357421875,27.641357421875,-17.05224609375,77.05224609375
-8.6817626953125,24.6817626953125,-0.01123046875,92.01123046875
-9.027099609375,25.027099609375,-13.412109375,77.412109375
-0.5487060546875,32.5487060546875,2.8896484375,93.1103515625
-1.4332275390625,29.4332275390625,-6.88037109375,82.88037109375
3.89111328125,32.10888671875,1.48095703125,90.51904296875
0.9576416015625,27.0423583984375,2.068359375,89.931640625
-8.5323486328125,16.5323486328125,4.83837890625,91.16162109375
1.3629150390625,26.6370849609375,-0.337890625,84.337890625
2.748046875,29.251953125,8.42236328125,91.57763671875
-8.2249755859375,20.2249755859375,3.08203125,84.91796875
-3.404296875,27.404296875,9.69482421875,90.30517578125
-10.5948486328125,22.5948486328125,-7.6650390625,71.6650390625
-13.496337890625,21.496337890625,-5.0029296875,73.0029296875
-9.7366943359375,25.7366943359375,3.5419921875,80.4580078125
-7.025146484375,27.025146484375,1.71337890625,78.28662109375
0.6368408203125,31.3631591796875,-0.74462890625,76.74462890625
0.8541259765625,27.1458740234375,-7.935546875,71.935546875
-9.05029296875,13.05029296875,-9.72412109375,73.72412109375
0.2708740234375,19.7291259765625,-1.759765625,85.759765625
-7.5032958984375,11.5032958984375,-11.60400390625,79.60400390625
5.7593994140625,26.2406005859375,-10.8857421875,82.8857421875
-3.4742431640625,19.4742431640625,-13.423828125,81.423828125
-4.6708984375,20.6708984375,-15.28076171875,79.28076171875
6.5067138671875,33.4932861328125,-10.7109375,82.7109375
-11.914306640625,15.914306640625,-12.05029296875,80.05029296875
-2.1507568359375,26.1507568359375,-13.60498046875,77.60498046875
-8.4678955078125,20.4678955078125,-1.5693359375,89.5693359375
-4.98486328125,24.98486328125,3.9990234375,96.0009765625
-13.611572265625,17.611572265625,1.1826171875,94.8173828125
-10.1492919921875,22.1492919921875,-17.8173828125,77.8173828125
-4.4764404296875,28.4764404296875,-10.716796875,86.716796875
-2.6680908203125,30.6680908203125,0.7822265625,99.2177734375
-10.9603271484375,22.9603271484375,-5.119140625,93.119140625
-5.5799560546875,29.5799560546875,-18.42626953125,78.42626953125
-8.5499267578125,28.5499267578125,-9.39013671875,85.39013671875
-13.6326904296875,25.6326904296875,3.5673828125,96.4326171875
-6.4503173828125,34.4503173828125,-9.9794921875,81.9794921875
-8.7080078125,32.7080078125,-2.26123046875,90.26123046875
-18.3702392578125,22.3702392578125,2.7919921875,97.2080078125
-11.6644287109375,27.6644287109375,-2.466796875,94.466796875
-14.9451904296875,22.9451904296875,-9.56591796875,89.56591796875
-10.516357421875,26.516357421875,-4.14501953125,96.14501953125
-16.5205078125,20.5205078125,-6.14404296875,94.14404296875
-12.94287109375,24.94287109375,-3.85107421875,95.85107421875
-5.70849609375,33.70849609375,-7.76806640625,91.76806640625
-12.787353515625,28.787353515625,-16.365234375,84.365234375
-12.239013671875,32.239013671875,-5.8330078125,97.8330078125
-14.1258544921875,34.1258544921875,-5.96337890625,101.96337890625
-16.3516845703125,36.3516845703125,-18.21875,94.21875
-26.5576171875,30.5576171875,-15.97314453125,99.97314453125
-20.1917724609375,40.1917724609375,-10.79833984375,106.79833984375
-22.7420654296875,38.7420654296875,-28.6474609375,88.6474609375
-12.01708984375,48.01708984375,-21.8408203125,93.8408203125
-8.30078125,48.30078125,-8.86962890625,104.86962890625
-18.2919921875,34.2919921875,-18.14501953125,94.14501953125
-4.8350830078125,44.8350830078125,-15.83447265625,95.83447265625
-14.56884765625,34.56884765625,-17.84326171875,93.84326171875
-23.6619873046875,27.6619873046875,-5.93505859375,105.93505859375
-9.7520751953125,45.7520751953125,-21.90576171875,89.90576171875
-18.1199951171875,42.1199951171875,-23.70849609375,87.70849609375
-30.0029296875,34.0029296875,-11.4765625,99.4765625
-26.905029296875,38.905029296875,-13.4208984375,97.4208984375
-16.765380859375,48.765380859375,-9.6669921875,101.6669921875
-17.94580078125,45.94580078125,-22.14892578125,90.14892578125
-21.0626220703125,41.0626220703125,-16.61669921875,96.61669921875
-16.736328125,44.736328125,-8.78125,104.78125
-29.340087890625,33.340087890625,-10.49658203125,102.49658203125
-22.8590087890625,42.8590087890625,-19.857421875,91.857421875
-28.908935546875,40.908935546875,-17.15234375,93.15234375
-18.898681640625,54.898681640625,-10.70947265625,98.70947265625
-32.2725830078125,44.2725830078125,-24.7412109375,84.7412109375
-34.7281494140625,42.7281494140625,-21.2802734375,89.2802734375
-26.314697265625,50.314697265625,-26.1982421875,86.1982421875
-35.3612060546875,39.3612060546875,-21.2646484375,93.2646484375
-24.2877197265625,48.2877197265625,-24.2333984375,92.2333984375
-17.4244384765625,53.4244384765625,-8.91015625,108.91015625
-18.9285888671875,50.9285888671875,-9.20263671875,109.20263671875
-30.8326416015625,38.8326416015625,-19.14208984375,99.14208984375
-23.1497802734375,47.1497802734375,-14.845703125,102.845703125
-25.9295654296875,45.9295654296875,-18.46142578125,98.46142578125
-19.2135009765625,55.2135009765625,-16.1025390625,100.1025390625
-28.919677734375,48.919677734375,-7.80517578125,107.80517578125
-36.781982421875,44.781982421875,-13.53955078125,101.53955078125
-38.4337158203125,46.4337158203125,-23.26611328125,91.26611328125
-39.5968017578125,47.5968017578125,-18.99267578125,94.99267578125
-34.23193359375,54.23193359375,-14.7900390625,98.7900390625
-24.5169677734375,64.5169677734375,-12.7568359375,100.7568359375
-36.671630859375,52.671630859375,-24.958984375,88.958984375
-34.77734375,54.77734375,-21.38232421875,93.38232421875
-30.7188720703125,58.7188720703125,-7.89697265625,107.89697265625
-26.2933349609375,62.2933349609375,-24.279296875,92.279296875
-41.39404296875,45.39404296875,-8.287109375,108.287109375
-34.157470703125,50.157470703125,-21.7685546875,93.7685546875
-38.962158203125,42.962158203125,-16.76611328125,96.76611328125
-26.27294921875,54.27294921875,-17.53125,93.53125
-38.4141845703125,42.4141845703125,-12.4521484375,96.4521484375
-31.3818359375,51.3818359375,-21.9033203125,85.9033203125
-40.81884765625,44.81884765625,-4.1123046875,104.1123046875
-28.1820068359375,60.1820068359375,-25.08740234375,85.08740234375
-37.02392578125,53.02392578125,-16.6337890625,96.6337890625
-25.2203369140625,65.2203369140625,-24.42236328125,92.42236328125
-39.0201416015625,51.0201416015625,-16.0791015625,104.0791015625
-34.8646240234375,54.8646240234375,-19.2705078125,103.2705078125
-27.1146240234375,63.1146240234375,-21.77783203125,101.77783203125
-39.8387451171875,51.8387451171875,-31.55517578125,91.55517578125
-30.7938232421875,62.7938232421875,-16.7392578125,104.7392578125
-31.5745849609375,63.5745849609375,-23.603515625,95.603515625
-31.8505859375,63.8505859375,-24.44970703125,92.44970703125
-37.5338134765625,57.5338134765625,-19.4775390625,95.4775390625
-42.807861328125,50.807861328125,-18.73046875,94.73046875
-30.0289306640625,62.0289306640625,-14.134765625,98.134765625
-43.5614013671875,47.5614013671875,-19.595703125,91.595703125
-31.629638671875,59.629638671875,-23.0927734375,87.0927734375
-36.2279052734375,56.2279052734375,-8.70263671875,100.70263671875
-37.10302734375,57.10302734375,-14.5615234375,94.5615234375
-45.8369140625,49.8369140625,-6.78369140625,102.78369140625
-32.01708984375,64.01708984375,-23.38916015625,87.38916015625
-33.4384765625,61.4384765625,-6.279296875,106.279296875
-40.2230224609375,52.2230224609375,-19.28125,95.28125
-34.782470703125,54.782470703125,-8.224609375,108.224609375
-35.630615234375,51.630615234375,-25.005859375,93.005859375
-41.1473388671875,45.1473388671875,-25.609375,93.609375
-41.4144287109375,45.4144287109375,-10.0654296875,110.0654296875
-24.2078857421875,64.2078857421875,-10.40087890625,110.40087890625
-37.1317138671875,53.1317138671875,-24.603515625,96.603515625
-29.819091796875,61.819091796875,-12.64794921875,108.64794921875
-28.0845947265625,64.0845947265625,-24.541015625,96.541015625
-35.95849609375,55.95849609375,-30.36083984375,90.36083984375
-31.5906982421875,59.5906982421875,-18.2373046875,102.2373046875
-29.1048583984375,61.1048583984375,-14.2890625,106.2890625
-32.5108642578125,56.5108642578125,-10.56591796875,110.56591796875
-33.742431640625,53.742431640625,-13.0263671875,109.0263671875
-26.790283203125,58.790283203125,-11.5537109375,111.5537109375
-25.80859375,57.80859375,-26.00830078125,98.00830078125
-33.0709228515625,49.0709228515625,-16.2783203125,108.2783203125
-28.8172607421875,52.8172607421875,-28.31787109375,96.31787109375
-33.0721435546875,49.0721435546875,-20.17333984375,104.17333984375
-35.5841064453125,47.5841064453125,-19.97412109375,103.97412109375
-37.9083251953125,45.9083251953125,-25.88623046875,97.88623046875
-29.6064453125,53.6064453125,-24.03466796875,100.03466796875
-28.473876953125,52.473876953125,-28.43017578125,96.43017578125
-20.6739501953125,56.6739501953125,-28.927734375,96.927734375
-34.701171875,38.701171875,-23.255859375,103.255859375
-15.1751708984375,55.1751708984375,-23.11181640625,103.11181640625
-30.5771484375,38.5771484375,-28.302734375,96.302734375
-21.0533447265625,49.0533447265625,-12.873046875,108.873046875
-24.3702392578125,48.3702392578125,-19.150390625,99.150390625
-22.0279541015625,54.0279541015625,-19.65966796875,95.65966796875
-33.4915771484375,45.4915771484375,-10.923828125,102.923828125
-28.4351806640625,52.4351806640625,-11.2412109375,103.2412109375
-24.8690185546875,56.8690185546875,-24.55029296875,92.55029296875
-39.0888671875,43.0888671875,-30.4423828125,90.4423828125
-25.4552001953125,57.4552001953125,-18.3212890625,106.3212890625
-24.150146484375,60.150146484375,-13.63916015625,113.63916015625
-37.0509033203125,49.0509033203125,-14.09130859375,114.09130859375
-31.7987060546875,55.7987060546875,-17.70361328125,109.70361328125
-40.0125732421875,48.0125732421875,-18.75048828125,106.75048828125
-39.523193359375,47.523193359375,-23.57763671875,99.57763671875
-28.4927978515625,56.4927978515625,-12.4326171875,108.4326171875
-39.367919921875,43.367919921875,-9.39111328125,109.39111328125
-32.667724609375,48.667724609375,-10.41064453125,106.41064453125
-26.7061767578125,54.7061767578125,-11.43017578125,103.43017578125
-37.3760986328125,45.3760986328125,-22.43212890625,90.43212890625
-24.1431884765625,60.1431884765625,-9.4404296875,101.4404296875
-24.287109375,60.287109375,-18.486328125,90.486328125
-27.27783203125,55.27783203125,-13.58740234375,93.58740234375
-27.087890625,51.087890625,-14.75439453125,90.75439453125
-24.26611328125,48.26611328125,-20.0078125,84.0078125
-31.710693359375,35.710693359375,-15.3994140625,87.3994140625
-12.251953125,52.251953125,-1.01123046875,101.01123046875
-20.2532958984375,44.2532958984375,-18.9306640625,82.9306640625
-21.4697265625,45.4697265625,-9.18896484375,93.18896484375
-21.233642578125,49.233642578125,-19.708984375,83.708984375
-32.8525390625,40.8525390625,-22.31591796875,82.31591796875
-29.96435546875,45.96435546875,-6.81494140625,98.81494140625
-18.64306640625,58.64306640625,-13.08642578125,93.08642578125
-27.2337646484375,51.2337646484375,-3.1220703125,103.1220703125
-36.0465087890625,44.0465087890625,-20.9912109375,84.9912109375
-31.1419677734375,51.1419677734375,-4.76806640625,100.76806640625
-26.3173828125,58.3173828125,-2.4736328125,102.4736328125
-39.27294921875,47.27294921875,-6.0810546875,98.0810546875
-41.8218994140625,45.8218994140625,-3.57568359375,99.57568359375
-25.99853515625,61.99853515625,-13.0205078125,89.0205078125
-28.021728515625,60.021728515625,-10.5732421875,90.5732421875
-34.144775390625,54.144775390625,-0.4140625,100.4140625
-38.4903564453125,50.4903564453125,-14.62841796875,86.62841796875
-34.9625244140625,54.9625244140625,-7.1201171875,95.1201171875
-31.277587890625,59.277587890625,-15.6220703125,87.6220703125
-27.1015625,63.1015625,-1.82275390625,101.82275390625
-30.2381591796875,58.2381591796875,-7.54296875,95.54296875
-24.7772216796875,60.7772216796875,-2.841796875,98.841796875
-25.11328125,57.11328125,-15.98876953125,83.98876953125
-21.8016357421875,57.8016357421875,-17.310546875,81.310546875
-21.2998046875,57.2998046875,-3.01611328125,95.01611328125
-31.720458984375,47.720458984375,-3.099609375,95.099609375
-32.739013671875,48.739013671875,0.62646484375,99.37353515625
-23.7474365234375,59.7474365234375,-13.60107421875,85.60107421875
-34.1650390625,50.1650390625,-17.6572265625,81.6572265625
-33.740478515625,49.740478515625,-11.60546875,87.60546875
-20.660888671875,60.660888671875,-17.64697265625,81.64697265625
-25.42333984375,53.42333984375,-17.97314453125,81.97314453125
-20.5736083984375,56.5736083984375,-12.61572265625,88.61572265625
-30.4398193359375,46.4398193359375,-11.40087890625,91.40087890625
-37.001953125,41.001953125,-4.0400390625,100.0400390625
-31.934814453125,47.934814453125,-22.27734375,82.27734375
-32.776123046875,48.776123046875,-10.03076171875,94.03076171875
-31.110595703125,51.110595703125,-11.42041015625,91.42041015625
-20.708984375,60.708984375,-18.70947265625,82.70947265625
-27.593505859375,51.593505859375,-20.18359375,80.18359375
-34.0242919921875,42.0242919921875,-0.009765625,100.009765625
-26.4217529296875,46.4217529296875,-8.1572265625,92.1572265625
-19.23974609375,51.23974609375,-8.39404296875,92.39404296875
-32.8231201171875,36.8231201171875,-6.392578125,94.392578125
-33.301513671875,37.301513671875,-13.89306640625,85.89306640625
-22.5557861328125,50.5557861328125,-18.8544921875,78.8544921875
-28.272705078125,48.272705078125,-7.5,87.5
-38.061767578125,42.061767578125,-10.2412109375,82.2412109375
-29.582763671875,53.582763671875,-11.490234375,79.490234375
-28.629638671875,56.629638671875,4.51220703125,95.48779296875
-41.16650390625,45.16650390625,1.80908203125,94.19091796875
-33.312744140625,53.312744140625,-3.3017578125,91.3017578125
-33.294677734375,53.294677734375,-12.4013671875,84.4013671875
-27.359619140625,59.359619140625,0.88134765625,99.11865234375
-37.6788330078125,49.6788330078125,-3.2666015625,95.2666015625
-28.28955078125,60.28955078125,-16.8994140625,80.8994140625
-43.097412109375,47.097412109375,-4.2900390625,92.2900390625
-39.9500732421875,51.9500732421875,-1.83740234375,93.83740234375
-44.71533203125,48.71533203125,0.10546875,95.89453125
-29.327880859375,65.327880859375,-12.49951171875,84.49951171875
-27.7686767578125,67.7686767578125,-5.158203125,93.158203125
-37.9879150390625,57.9879150390625,-12.861328125,84.861328125
-27.826904296875,67.826904296875,-10.4208984375,82.4208984375
-27.0069580078125,67.0069580078125,-4.98779296875,76.98779296875
-41.2308349609375,49.2308349609375,-0.4765625,64.4765625
-38.340576171875,46.340576171875,22.32958984375,65.67041015625
-36.452392578125,40.452392578125,34.0751953125,53.9248046875
-17.9635009765625,49.9635009765625,47.37646484375,44.62353515625
-15.4296875,43.4296875,49.333984375,26.666015625
-9.3759765625,41.3759765625,49.76708984375,10.23291015625
-20.1287841796875,24.1287841796875,69.06494140625,14.93505859375
-7.7708740234375,31.7708740234375,75.8212890625,8.1787109375
-14.21875,22.21875,82.44140625,1.55859375
-5.3560791015625,29.3560791015625,76.92138671875,-16.92138671875
2.8912353515625,37.1087646484375,86.837890625,-18.837890625
-1.439208984375,33.439208984375,95.51953125,-19.51953125
-0.2779541015625,36.2779541015625,92.35791015625,-28.35791015625
0.5186767578125,39.4813232421875,95.140625,-27.140625
-10.845458984375,30.845458984375,108.24169921875,-12.24169921875
-16.18017578125,28.18017578125,96.5341796875,-20.5341796875
-13.4029541015625,33.4029541015625,99.03662109375,-15.03662109375
-16.5799560546875,32.5799560546875,92.478515625,-20.478515625
-9.86865234375,41.86865234375,89.0244140625,-25.0244140625
-19.3917236328125,35.3917236328125,100.3017578125,-16.3017578125
-11.130126953125,47.130126953125,109.67822265625,-9.67822265625
-14.904052734375,46.904052734375,92.6201171875,-28.6201171875
-16.4390869140625,48.4390869140625,92.91943359375,-28.91943359375
-15.475830078125,51.475830078125,102.7294921875,-18.7294921875
-15.86669921875,51.86669921875,100.40869140625,-20.40869140625
-15.6529541015625,51.6529541015625,110.2822265625,-10.2822265625
-19.10595703125,47.10595703125,90.43505859375,-30.43505859375
-26.6795654296875,38.6795654296875,90.65087890625,-30.65087890625
-22.8408203125,42.8408203125,104.5166015625,-16.5166015625
-31.8409423828125,35.8409423828125,91.6591796875,-27.6591796875
-17.5560302734375,53.5560302734375,93.98486328125,-21.98486328125
-17.5203857421875,57.5203857421875,101.79345703125,-9.79345703125
-25.1258544921875,53.1258544921875,85.68212890625,-21.68212890625
-29.8831787109375,49.8831787109375,102.28515625,-2.28515625
-31.61865234375,47.61865234375,95.97265625,-7.97265625
-24.5206298828125,52.5206298828125,102.67822265625,-2.67822265625
-27.0257568359375,47.0257568359375,95.9443359375,-11.9443359375
-25.6029052734375,45.6029052734375,93.1533203125,-17.1533203125
-14.5498046875,54.5498046875,89.81103515625,-21.81103515625
-15.9222412109375,51.9222412109375,85.75048828125,-25.75048828125
-29.609130859375,37.609130859375,89.15771484375,-21.15771484375
-19.4703369140625,47.4703369140625,94.44287109375,-14.44287109375
-13.40673828125,53.40673828125,90.04638671875,-18.04638671875
-15.327880859375,51.327880859375,90.25927734375,-18.25927734375
-27.09228515625,39.09228515625,97.12939453125,-13.12939453125
-16.5186767578125,48.5186767578125,96.4736328125,-16.4736328125
-29.478515625,33.478515625,101.9658203125,-13.9658203125
-24.0078125,36.0078125,105.2412109375,-13.2412109375
-16.3590087890625,40.3590087890625,107.9462890625,-11.9462890625
-12.950439453125,40.950439453125,91.7724609375,-27.7724609375
-16.2122802734375,36.2122802734375,92.51806640625,-24.51806640625
-10.40576171875,42.40576171875,92.232421875,-20.232421875
-15.5032958984375,39.5032958984375,85.3544921875,-21.3544921875
-19.2060546875,39.2060546875,92.70703125,-8.70703125
-21.094970703125,41.094970703125,89.2529296875,-9.2529296875
-26.8109130859375,38.8109130859375,83.66455078125,-15.66455078125
-22.159423828125,46.159423828125,99.95263671875,-3.95263671875
-31.101806640625,39.101806640625,89.37353515625,-21.37353515625
-17.6865234375,53.6865234375,88.720703125,-28.720703125
-29.9666748046875,41.9666748046875,96.8359375,-24.8359375
-25.9532470703125,45.9532470703125,103.08203125,-19.08203125
-31.620361328125,39.620361328125,97.5458984375,-21.5458984375
-28.9676513671875,40.9676513671875,90.92578125,-22.92578125
-18.1038818359375,50.1038818359375,100.1865234375,-8.1865234375
-23.271728515625,43.271728515625,100.1650390625,-4.1650390625
-20.767822265625,44.767822265625,97.28271484375,-5.28271484375
-28.7828369140625,36.7828369140625,99.45703125,-3.45703125
-27.273193359375,39.273193359375,98.20068359375,-6.20068359375
-21.97314453125,45.97314453125,90.8544921875,-14.8544921875
-20.5631103515625,48.5631103515625,84.8759765625,-20.8759765625
-22.87646484375,46.87646484375,88.0654296875,-16.0654296875
-16.9886474609375,52.9886474609375,98.64208984375,-2.64208984375
-25.1065673828125,45.1065673828125,91.10595703125,-7.10595703125
-31.362548828125,39.362548828125,79.978515625,-15.978515625
-25.6953125,45.6953125,89.5458984375,-5.5458984375
-29.9095458984375,41.9095458984375,81.7451171875,-13.7451171875
-31.876220703125,39.876220703125,92.22900390625,-4.22900390625
-15.683837890625,55.683837890625,90.5537109375,-6.5537109375
-19.622802734375,51.622802734375,98.39892578125,1.60107421875
-16.0050048828125,56.0050048828125,77.693359375,-17.693359375
-18.9459228515625,54.9459228515625,76.6142578125,-16.6142578125
-18.2747802734375,58.2747802734375,75.47802734375,-15.47802734375
-31.623046875,47.623046875,88.59326171875,-0.59326171875
-30.6324462890625,50.6324462890625,82.1533203125,-6.1533203125
-33.13330078125,49.13330078125,78.18603515625,-10.18603515625
-27.194580078125,55.194580078125,84.5556640625,-4.5556640625
-21.04443359375,61.04443359375,85.01220703125,-5.01220703125
-36.9197998046875,44.9197998046875,75.25439453125,-15.25439453125
-38.9417724609375,42.9417724609375,81.009765625,-9.009765625
-31.0772705078125,51.0772705078125,82.12744140625,-6.12744140625
-29.18994140625,53.18994140625,82.65283203125,-2.65283203125
-37.1317138671875,45.1317138671875,88.85595703125,7.14404296875
-36.81982421875,44.81982421875,77.14892578125,-1.14892578125
-36.2691650390625,44.2691650390625,77.9140625,2.0859375
-25.5992431640625,53.5992431640625,87.3310546875,12.6689453125
-31.0010986328125,47.0010986328125,71.2841796875,-3.2841796875
-28.6676025390625,48.6676025390625,69.447265625,-5.447265625
-26.68505859375,50.68505859375,81.46923828125,6.53076171875
-26.952880859375,50.952880859375,83.1826171875,8.8173828125
-25.203857421875,53.203857421875,86.7109375,13.2890625
-31.1505126953125,47.1505126953125,66.400390625,-6.400390625
-36.66748046875,40.66748046875,82.623046875,9.376953125
-21.8780517578125,53.8780517578125,73.56494140625,-1.56494140625
-17.0863037109375,57.0863037109375,79.1220703125,0.8779296875
-26.5799560546875,46.5799560546875,82.9560546875,1.0439453125
-24.4466552734375,48.4466552734375,72.6484375,-12.6484375
-32.490478515625,40.490478515625,91.86376953125,4.13623046875
-18.34130859375,54.34130859375,88.4443359375,-0.4443359375
-15.6881103515625,55.6881103515625,76.42578125,-12.42578125
-16.4967041015625,52.4967041015625,86.001953125,-2.001953125
-21.0574951171875,45.0574951171875,77.4501953125,-9.4501953125
-23.8468017578125,39.8468017578125,93.037109375,6.962890625
-17.289306640625,45.289306640625,88.93212890625,3.06787109375
-19.5650634765625,43.5650634765625,93.1435546875,6.8564453125
-18.5418701171875,46.5418701171875,79.5146484375,-7.5146484375
-13.846923828125,53.846923828125,73.798828125,-13.798828125
-29.028076171875,41.028076171875,79.7939453125,-7.7939453125
-17.7381591796875,53.7381591796875,77.482421875,-9.482421875
-25.8883056640625,45.8883056640625,79.09619140625,-7.09619140625
-25.68994140625,45.68994140625,73.05419921875,-13.05419921875
-25.550048828125,45.550048828125,93.7724609375,6.2275390625
-19.8499755859375,51.8499755859375,87.43408203125,-3.43408203125
-20.7305908203125,52.7305908203125,81.8359375,-13.8359375
-36.008544921875,40.008544921875,80.41796875,-20.41796875
-23.259521484375,55.259521484375,82.4892578125,-22.4892578125
-32.031005859375,48.031005859375,97.5439453125,-9.5439453125
-26.05810546875,54.05810546875,97.48779296875,-9.48779296875
-31.371826171875,47.371826171875,102.650390625,-2.650390625
-26.264404296875,50.264404296875,89.6005859375,-13.6005859375
-31.1566162109375,43.1566162109375,98.86767578125,-2.86767578125
-32.4185791015625,40.4185791015625,96.74267578125,-4.74267578125
-30.221435546875,42.221435546875,91.22607421875,-11.22607421875
-20.4779052734375,52.4779052734375,96.11181640625,-8.11181640625
-20.8778076171875,52.8778076171875,89.1201171875,-17.1201171875
-27.0198974609375,47.0198974609375,91.98681640625,-15.98681640625
-16.599853515625,56.599853515625,88.51171875,-20.51171875
-25.584228515625,45.584228515625,102.58154296875,-6.58154296875
-28.2862548828125,40.2862548828125,92.2265625,-16.2265625
-25.253662109375,41.253662109375,87.6455078125,-19.6455078125
-29.0205078125,37.0205078125,85.1572265625,-21.1572265625
-17.8367919921875,49.8367919921875,103.0546875,-3.0546875
-33.5189208984375,37.5189208984375,95.4384765625,-11.4384765625
-21.4993896484375,53.4993896484375,96.138671875,-12.138671875
-19.0523681640625,59.0523681640625,92.79443359375,-16.79443359375
-29.595458984375,49.595458984375,85.0546875,-25.0546875
-18.9359130859375,58.9359130859375,94.7802734375,-14.7802734375
-19.3306884765625,55.3306884765625,88.14404296875,-20.14404296875
-19.3485107421875,51.3485107421875,91.578125,-15.578125
-19.6019287109375,47.6019287109375,83.59326171875,-23.59326171875
-22.5072021484375,42.5072021484375,98.5498046875,-10.5498046875
-14.159423828125,50.159423828125,98.47412109375,-14.47412109375
-24.363525390625,40.363525390625,103.015625,-15.015625
-12.7579345703125,52.7579345703125,95.59716796875,-27.59716796875
-24.983154296875,40.983154296875,111.6591796875,-15.6591796875
-28.8349609375,36.8349609375,96.87841796875,-32.87841796875
-16.354248046875,48.354248046875,109.24951171875,-21.24951171875
-11.802734375,51.802734375,105.0009765625,-25.0009765625
-15.5289306640625,47.5289306640625,106.4443359375,-22.4443359375
-29.7662353515625,33.7662353515625,107.84033203125,-19.84033203125
-24.4957275390625,40.4957275390625,99.3466796875,-27.3466796875
-15.4453125,51.4453125,93.03759765625,-33.03759765625
-20.232421875,48.232421875,96.9423828125,-28.9423828125
-24.5716552734375,44.5716552734375,113.0673828125,-13.0673828125
-28.4254150390625,40.4254150390625,101.38720703125,-25.38720703125
-15.9979248046875,51.9979248046875,97.82958984375,-29.82958984375
-21.5772705078125,45.5772705078125,108.28125,-20.28125
-19.3280029296875,47.3280029296875,112.634765625,-16.634765625
-23.1929931640625,43.1929931640625,94.8447265625,-34.8447265625
-22.9642333984375,42.9642333984375,94.9638671875,-34.9638671875
-14.453369140625,50.453369140625,109.12255859375,-21.12255859375
-13.62646484375,49.62646484375,105.47412109375,-25.47412109375
-14.6375732421875,46.6375732421875,96.1142578125,-36.1142578125
-21.7489013671875,37.7489013671875,113.03076171875,-21.03076171875
-25.22216796875,33.22216796875,100.09912109375,-36.09912109375
-17.2354736328125,41.2354736328125,111.13671875,-27.13671875
-11.830810546875,47.830810546875,109.9970703125,-29.9970703125
-20.889404296875,40.889404296875,104.63037109375,-36.63037109375
-20.141357421875,44.141357421875,119.06689453125,-23.06689453125
-21.2396240234375,45.2396240234375,119.3486328125,-23.3486328125
-21.8876953125,45.8876953125,109.45361328125,-33.45361328125
-17.9638671875,49.9638671875,109.32080078125,-33.32080078125
-17.5609130859375,49.5609130859375,116.943359375,-24.943359375
-14.929443359375,50.929443359375,116.44775390625,-24.44775390625
-22.345947265625,42.345947265625,108.07373046875,-32.07373046875
-11.980224609375,51.980224609375,100.04150390625,-40.04150390625
-11.8271484375,51.8271484375,100.4072265625,-40.4072265625
-17.7459716796875,45.7459716796875,111.009765625,-31.009765625
-21.577880859375,41.577880859375,115.55322265625,-27.55322265625
-23.283447265625,39.283447265625,113.7783203125,-29.7783203125
-24.99658203125,36.99658203125,103.6044921875,-39.6044921875
-10.9605712890625,50.9605712890625,113.1787109375,-29.1787109375
-11.3758544921875,51.3758544921875,100.80029296875,-40.80029296875
-20.2374267578125,44.2374267578125,120.7744140625,-20.7744140625
-25.294189453125,41.294189453125,113.28564453125,-29.28564453125
-28.15478515625,40.15478515625,116.33154296875,-28.33154296875
-20.5020751953125,48.5020751953125,113.73193359375,-33.73193359375
-26.2650146484375,42.2650146484375,117.18896484375,-33.18896484375
-15.6566162109375,51.6566162109375,106.37060546875,-46.37060546875
-19.0474853515625,47.0474853515625,106.990234375,-46.990234375
-14.75732421875,50.75732421875,116.8935546875,-36.8935546875
-30.8831787109375,34.8831787109375,112.12255859375,-40.12255859375
-23.2498779296875,43.2498779296875,122.9345703125,-26.9345703125
-13.5106201171875,53.5106201171875,111.72900390625,-35.72900390625
-13.33349609375,53.33349609375,106.890625,-38.890625
-18.5875244140625,46.5875244140625,122.61572265625,-22.61572265625
-29.4365234375,33.4365234375,110.81640625,-34.81640625
-20.2763671875,40.2763671875,103.1650390625,-43.1650390625
-19.5614013671875,39.5614013671875,105.26025390625,-41.26025390625
-19.59033203125,39.59033203125,120.82763671875,-24.82763671875
-22.370361328125,38.370361328125,111.841796875,-31.841796875
-27.621337890625,35.621337890625,116.5224609375,-24.5224609375
-14.9080810546875,50.9080810546875,103.22021484375,-35.22021484375
-13.83837890625,53.83837890625,114.259765625,-22.259765625
-14.2169189453125,54.2169189453125,107.82373046875,-27.82373046875
-20.092041015625,48.092041015625,97.8994140625,-37.8994140625
-19.6800537109375,47.6800537109375,102.2822265625,-34.2822265625
-25.239501953125,41.239501953125,102.6396484375,-34.6396484375
-26.9466552734375,38.9466552734375,118.61376953125,-18.61376953125
-26.80419921875,38.80419921875,103.9873046875,-31.9873046875
-30.596435546875,34.596435546875,116.7939453125,-16.7939453125
-11.9366455078125,51.9366455078125,95.3095703125,-35.3095703125
-24.3931884765625,36.3931884765625,111.90966796875,-15.90966796875
-15.6561279296875,39.6561279296875,110.89599609375,-14.89599609375
-11.64892578125,35.64892578125,96.3837890625,-28.3837890625
-10.5244140625,26.5244140625,110.28369140625,-14.28369140625
-6.494873046875,18.494873046875,102.39013671875,-22.39013671875
2.4095458984375,13.5904541015625,102.537109375,-22.537109375
10.4404296875,5.5595703125,92.7138671875,-32.7138671875
27.9632568359375,4.0367431640625,111.02294921875,-15.02294921875
35.169677734375,-11.169677734375,103.51318359375,-23.51318359375
51.9366455078125,-19.9366455078125,114.0439453125,-14.0439453125
63.911865234375,-35.911865234375,98.35400390625,-30.35400390625
78.716796875,-50.716796875,96.27392578125,-32.27392578125
100.0799560546875,-60.0799560546875,107.8837890625,-19.8837890625
99.8197021484375,-91.8197021484375,107.47607421875,-19.47607421875
127.701171875,-95.701171875,97.3720703125,-29.3720703125
129.2882080078125,-125.2882080078125,109.73291015625,-17.73291015625
157.894775390625,-125.894775390625,114.484375,-14.484375
160.70849609375,-148.70849609375,101.38232421875,-29.38232421875
181.03759765625,-149.03759765625,102.15576171875,-30.15576171875
180.5594482421875,-164.5594482421875,114.64306640625,-18.64306640625
187.415771484375,-167.415771484375,110.818359375,-22.818359375
184.1298828125,-176.1298828125,106.72802734375,-26.72802734375
189.397705078125,-173.397705078125,98.4208984375,-34.4208984375
187.86767578125,-175.86767578125,107.97900390625,-23.97900390625
191.9410400390625,-171.9410400390625,109.59716796875,-21.59716796875
197.6484375,-165.6484375,107.59423828125,-23.59423828125
196.6727294921875,-164.6727294921875,102.28515625,-30.28515625
198.5390625,-158.5390625,105.794921875,-29.794921875
190.8857421875,-158.8857421875,113.94873046875,-25.94873046875
183.6561279296875,-155.6561279296875,120.328125,-24.328125
171.1102294921875,-155.1102294921875,104.45947265625,-44.45947265625
165.702392578125,-145.702392578125,113.9755859375,-37.9755859375
159.9169921875,-135.9169921875,124.69287109375,-28.69287109375
154.169189453125,-126.169189453125,120.59326171875,-32.59326171875
138.7462158203125,-126.7462158203125,109.78662109375,-41.78662109375
141.7830810546875,-109.7830810546875,104.4921875,-44.4921875
133.25732421875,-105.25732421875,117.00830078125,-29.00830078125
115.0333251953125,-111.0333251953125,119.65771484375,-23.65771484375
110.9339599609375,-102.9339599609375,104.7255859375,-36.7255859375
114.7987060546875,-86.7987060546875,114.4130859375,-26.4130859375
110.4892578125,-78.4892578125,118.79833984375,-22.79833984375
91.88330078125,-83.88330078125,101.79931640625,-41.79931640625
86.9031982421875,-74.9031982421875,105.150390625,-41.150390625
83.5841064453125,-63.5841064453125,120.462890625,-28.462890625
70.1177978515625,-62.1177978515625,123.37451171875,-27.37451171875
76.8177490234375,-40.8177490234375,119.712890625,-31.712890625
64.02783203125,-40.02783203125,107.5673828125,-43.5673828125
58.0089111328125,-34.0089111328125,115.21533203125,-35.21533203125
54.865234375,-26.865234375,124.97265625,-24.97265625
42.525634765625,-30.525634765625,121.037109375,-29.037109375
42.7750244140625,-22.7750244140625,123.4326171875,-27.4326171875
37.3275146484375,-21.3275146484375,110.04296875,-42.04296875
45.90234375,-5.90234375,118.70361328125,-34.70361328125
28.2833251953125,-16.2833251953125,127.2744140625,-27.2744140625
34.3551025390625,-2.3551025390625,119.66845703125,-35.66845703125
18.12548828125,-10.12548828125,113.818359375,-41.818359375
25.7301025390625,6.2698974609375,115.65185546875,-39.65185546875
9.422607421875,-1.422607421875,121.11376953125,-33.11376953125
7.5338134765625,4.4661865234375,122.21875,-30.21875
16.381591796875,19.618408203125,111.099609375,-39.099609375
12.13427734375,19.86572265625,119.96630859375,-27.96630859375
0.686767578125,11.313232421875,115.01708984375,-31.01708984375
-0.3447265625,12.3447265625,104.3564453125,-40.3564453125
10.543212890625,25.456787109375,117.9873046875,-25.9873046875
-6.9769287109375,10.9769287109375,113.859375,-29.859375
5.1510009765625,26.8489990234375,109.916015625,-33.916015625
-4.6475830078125,20.6475830078125,106.10888671875,-38.10888671875
-9.86181640625,17.86181640625,122.38134765625,-22.38134765625
1.7259521484375,30.2740478515625,120.66455078125,-24.66455078125
-10.158447265625,18.158447265625,106.8779296875,-38.8779296875
-12.15771484375,16.15771484375,110.962890625,-34.962890625
-2.8890380859375,26.8890380859375,104.90966796875,-40.90966796875
1.4461669921875,34.5538330078125,102.7744140625,-42.7744140625
1.1837158203125,38.8162841796875,112.6376953125,-32.6376953125
-5.0234375,37.0234375,104.5458984375,-40.5458984375
-10.5810546875,34.5810546875,106.45849609375,-38.45849609375
-19.218017578125,27.218017578125,116.2802734375,-28.2802734375
-3.0130615234375,43.0130615234375,109.92333984375,-33.92333984375
-12.2569580078125,32.2569580078125,113.37841796875,-29.37841796875
-7.2906494140625,35.2906494140625,106.72119140625,-34.72119140625
-12.3953857421875,28.3953857421875,114.056640625,-26.056640625
0.2784423828125,39.7215576171875,115.4541015625,-23.4541015625
-7.2415771484375,31.2415771484375,114.9130859375,-22.9130859375
-0.7716064453125,36.7716064453125,114.38427734375,-22.38427734375
-0.1005859375,36.1005859375,111.82373046875,-23.82373046875
-3.1864013671875,31.1864013671875,101.232421875,-33.232421875
-14.27880859375,18.27880859375,102.68408203125,-30.68408203125
-3.822509765625,27.822509765625,96.31689453125,-36.31689453125
-2.1458740234375,30.1458740234375,108.29931640625,-24.29931640625
0.872314453125,35.127685546875,114.75439453125,-18.75439453125
-14.1334228515625,22.1334228515625,99.65966796875,-35.65966796875
-16.3392333984375,20.3392333984375,108.78564453125,-28.78564453125
-15.268798828125,19.268798828125,99.7587890625,-39.7587890625
-7.172119140625,23.172119140625,120.2255859375,-20.2255859375
-2.9508056640625,22.9508056640625,120.0546875,-20.0546875
-7.663330078125,15.663330078125,117.419921875,-21.419921875
6.0675048828125,29.9324951171875,112.71044921875,-24.71044921875
-3.647705078125,23.647705078125,108.31103515625,-28.31103515625
-8.1011962890625,24.1011962890625,102.39794921875,-34.39794921875
-4.4100341796875,32.4100341796875,104.8720703125,-32.8720703125
-15.918212890625,23.918212890625,107.46484375,-31.46484375
-10.3668212890625,30.3668212890625,105.90380859375,-33.90380859375
-13.8326416015625,25.8326416015625,116.0341796875,-24.0341796875
-12.5823974609375,24.5823974609375,119.83837890625,-19.83837890625
-12.9752197265625,20.9752197265625,105.37744140625,-33.37744140625
-5.441650390625,25.441650390625,106.74169921875,-30.74169921875
5.5792236328125,34.4207763671875,102.021484375,-34.021484375
-0.214111328125,28.214111328125,105.31201171875,-29.31201171875
5.2056884765625,34.7943115234375,98.68310546875,-34.68310546875
0.23974609375,31.76025390625,96.16845703125,-36.16845703125
-2.516357421875,30.516357421875,115.75244140625,-15.75244140625
-2.6072998046875,30.6072998046875,111.419921875,-19.419921875
-0.0087890625,32.0087890625,109.21240234375,-21.21240234375
-13.170654296875,17.170654296875,103.26123046875,-27.26123046875
5.2315673828125,34.7684326171875,99.7412109375,-31.7412109375
-7.29345703125,23.29345703125,110.765625,-22.765625
-10.741943359375,22.741943359375,110.27001953125,-26.27001953125
-16.6021728515625,20.6021728515625,115.98486328125,-23.98486328125
-16.1602783203125,24.1602783203125,101.521484375,-41.521484375
-2.910400390625,38.910400390625,118.5244140625,-26.5244140625
-8.8131103515625,32.8131103515625,112.82275390625,-32.82275390625
-2.2349853515625,38.2349853515625,108.4990234375,-36.4990234375
-15.648193359375,23.648193359375,103.8505859375,-39.8505859375
-9.3134765625,29.3134765625,113.27587890625,-29.27587890625
-7.16943359375,31.16943359375,121.11572265625,-21.11572265625
-6.969970703125,30.969970703125,103.5341796875,-39.5341796875
-8.529296875,28.529296875,120.45361328125,-24.45361328125
0.117919921875,35.882080078125,109.59912109375,-37.59912109375
-13.2567138671875,21.2567138671875,108.61279296875,-40.61279296875
-2.8919677734375,30.8919677734375,117.21337890625,-33.21337890625
-12.850830078125,20.850830078125,121.3291015625,-29.3291015625
-6.96728515625,26.96728515625,125.13720703125,-25.13720703125
-2.9532470703125,30.9532470703125,124.98193359375,-24.98193359375
-12.6011962890625,20.6011962890625,107.20654296875,-43.20654296875
2.0477294921875,33.9522705078125,107.99462890625,-43.99462890625
-1.305419921875,29.305419921875,127.28759765625,-27.28759765625
-1.0513916015625,29.0513916015625,108.822265625,-48.822265625
0.57763671875,31.42236328125,130.25244140625,-30.25244140625
-6.31494140625,26.31494140625,129.2802734375,-33.2802734375
-1.318359375,33.318359375,131.736328125,-31.736328125
-5.938232421875,29.938232421875,111.59033203125,-51.59033203125
-3.8717041015625,31.8717041015625,126.9248046875,-34.9248046875
-15.1630859375,19.1630859375,123.90380859375,-35.90380859375
-10.173095703125,22.173095703125,128.76025390625,-28.76025390625
-11.39697265625,19.39697265625,125.75927734375,-29.75927734375
-3.2303466796875,27.2303466796875,113.119140625,-41.119140625
-1.8060302734375,29.8060302734375,122.9150390625,-30.9150390625
-14.961181640625,18.961181640625,117.01904296875,-37.01904296875
-10.334228515625,26.334228515625,107.13427734375,-47.13427734375
-7.531494140625,31.531494140625,106.9326171875,-46.9326171875
-12.2996826171875,28.2996826171875,114.24072265625,-38.24072265625
-18.6279296875,22.6279296875,125.1533203125,-25.1533203125
-6.7529296875,34.7529296875,120.0224609375,-28.0224609375
-11.0223388671875,31.0223388671875,113.279296875,-33.279296875
-3.6968994140625,39.6968994140625,121.21533203125,-25.21533203125
-20.7952880859375,24.7952880859375,119.81640625,-27.81640625
-8.089111328125,40.089111328125,120.771484375,-28.771484375
-15.242919921875,35.242919921875,119.6455078125,-31.6455078125
-20.0152587890625,32.0152587890625,112.11279296875,-40.11279296875
-12.3656005859375,40.3656005859375,106.09912109375,-46.09912109375
-8.4102783203125,44.4102783203125,123.771484375,-27.771484375
-24.286376953125,28.286376953125,117.38330078125,-33.38330078125
-22.0430908203125,30.0430908203125,123.10595703125,-27.10595703125
-11.6522216796875,39.6522216796875,106.96142578125,-42.96142578125
-13.1131591796875,37.1131591796875,122.88232421875,-26.88232421875
-4.5576171875,44.5576171875,118.82666015625,-30.82666015625
-10.2528076171875,38.2528076171875,108.86181640625,-40.86181640625
-8.489501953125,40.489501953125,111.13916015625,-39.13916015625
-5.39306640625,45.39306640625,111.77978515625,-39.77978515625
-22.7742919921875,30.7742919921875,124.7548828125,-28.7548828125
-12.1361083984375,44.1361083984375,127.849609375,-27.849609375
-22.84765625,34.84765625,116.75,-40.75
-26.4366455078125,30.4366455078125,113.18798828125,-45.18798828125
-12.830322265625,40.830322265625,121.06396484375,-37.06396484375
-22.4326171875,26.4326171875,110.4814453125,-46.4814453125
-1.9813232421875,41.9813232421875,115.69482421875,-39.69482421875
-10.243896484375,30.243896484375,121.009765625,-33.009765625
-15.695556640625,23.695556640625,118.65380859375,-34.65380859375
-16.3443603515625,24.3443603515625,116.68798828125,-36.68798828125
-1.7794189453125,41.7794189453125,114.98291015625,-38.98291015625
-19.4058837890625,27.4058837890625,119.27294921875,-35.27294921875
-22.703369140625,26.703369140625,113.26953125,-41.26953125
-23.377685546875,27.377685546875,106.8017578125,-46.8017578125
-15.3616943359375,35.3616943359375,119.91357421875,-31.91357421875
-12.744384765625,36.744384765625,118.884765625,-30.884765625
-17.70361328125,29.70361328125,114.12109375,-34.12109375
-16.449951171875,28.449951171875,123.97216796875,-23.97216796875
-3.17626953125,39.17626953125,120.5654296875,-28.5654296875
-6.0120849609375,34.0120849609375,105.7412109375,-45.7412109375
0.98486328125,39.01513671875,125.12158203125,-29.12158203125
-0.196533203125,36.196533203125,120.27783203125,-36.27783203125
0.4385986328125,35.5614013671875,126.90234375,-30.90234375
-15.1441650390625,19.1441650390625,128.912109375,-28.912109375
-11.0146484375,23.0146484375,120.43603515625,-36.43603515625
-3.244140625,31.244140625,123.72314453125,-31.72314453125
-11.845703125,23.845703125,109.017578125,-45.017578125
-12.7322998046875,24.7322998046875,112.4794921875,-40.4794921875
-9.733154296875,29.733154296875,108.140625,-44.140625
-8.65283203125,32.65283203125,109.92333984375,-41.92333984375
-7.3323974609375,35.3323974609375,117.71533203125,-33.71533203125
-15.674072265625,27.674072265625,125.462890625,-25.462890625
-19.6351318359375,23.6351318359375,113.23291015625,-37.23291015625
-3.2333984375,39.2333984375,117.2060546875,-33.2060546875
-18.5655517578125,22.5655517578125,109.59130859375,-41.59130859375
-11.8094482421875,27.8094482421875,120.498046875,-32.498046875
-13.1649169921875,25.1649169921875,119.81884765625,-35.81884765625
-0.7598876953125,36.7598876953125,117.2275390625,-41.2275390625
-6.5921630859375,30.5921630859375,110.2880859375,-50.2880859375
-8.5614013671875,28.5614013671875,126.65576171875,-34.65576171875
-16.562255859375,20.562255859375,124.23046875,-36.23046875
-2.5635986328125,34.5635986328125,129.19970703125,-29.19970703125
-14.6097412109375,22.6097412109375,121.9658203125,-33.9658203125
-12.74609375,24.74609375,110.9765625,-42.9765625
-0.931396484375,36.931396484375,120.5478515625,-32.5478515625
-3.0164794921875,35.0164794921875,114.7490234375,-38.7490234375
1.1798095703125,38.8201904296875,119.390625,-35.390625
-14.2698974609375,22.2698974609375,110.11669921875,-46.11669921875
-15.5157470703125,19.5157470703125,128.54296875,-28.54296875
-12.90771484375,20.90771484375,120.39794921875,-36.39794921875
1.1881103515625,34.8118896484375,107.6337890625,-47.6337890625
-3.3668212890625,31.3668212890625,120.4453125,-32.4453125
-14.3548583984375,22.3548583984375,107.216796875,-43.216796875
-17.28564453125,21.28564453125,110.3681640625,-38.3681640625
-15.647705078125,23.647705078125,114.19873046875,-34.19873046875
-15.208251953125,23.208251953125,112.7939453125,-36.7939453125
-2.1685791015625,34.1685791015625,118.01904296875,-34.01904296875
-13.1004638671875,21.1004638671875,109.59765625,-45.59765625
-12.6505126953125,20.6505126953125,109.19091796875,-49.19091796875
-11.1971435546875,23.1971435546875,122.4794921875,-38.4794921875
1.32763671875,38.67236328125,113.22265625,-49.22265625
-2.62939453125,38.62939453125,111.30908203125,-51.30908203125
-16.489501953125,28.489501953125,120.78466796875,-40.78466796875
-5.784912109375,41.784912109375,115.8486328125,-43.8486328125
-16.2928466796875,32.2928466796875,128.79833984375,-28.79833984375
-10.044677734375,38.044677734375,121.93359375,-33.93359375
-9.25537109375,37.25537109375,117.443359375,-37.443359375
-20.22802734375,24.22802734375,121.31787109375,-33.31787109375
-9.269775390625,33.269775390625,109.34423828125,-45.34423828125
-6.6383056640625,34.6383056640625,119.208984375,-35.208984375
-18.4918212890625,22.4918212890625,126.66064453125,-26.66064453125
-10.8343505859375,30.8343505859375,123.64453125,-27.64453125
-19.5037841796875,23.5037841796875,120.345703125,-28.345703125
-18.2327880859375,26.2327880859375,103.10986328125,-43.10986328125
-6.778076171875,38.778076171875,102.3037109375,-42.3037109375
-5.0313720703125,41.0313720703125,110.14697265625,-34.14697265625
-3.0430908203125,43.0430908203125,120.61474609375,-24.61474609375
-2.956298828125,42.956298828125,115.4404296875,-31.4404296875
-16.9183349609375,28.9183349609375,116.23583984375,-32.23583984375
-15.0177001953125,31.0177001953125,118.662109375,-30.662109375
-13.2760009765625,33.2760009765625,124.5791015625,-24.5791015625
-7.66748046875,39.66748046875,120.08740234375,-28.08740234375
-16.1571044921875,32.1571044921875,115.46142578125,-31.46142578125
-8.710693359375,40.710693359375,115.02099609375,-31.02099609375
-23.26806640625,27.26806640625,109.00634765625,-37.00634765625
-7.706787109375,43.706787109375,119.50830078125,-27.50830078125
-15.8492431640625,35.8492431640625,112.44140625,-36.44140625
-15.541748046875,35.541748046875,117.5947265625,-33.5947265625
-18.7701416015625,30.7701416015625,106.7080078125,-46.7080078125
-17.71923828125,29.71923828125,113.56640625,-41.56640625
-6.72412109375,38.72412109375,120.06591796875,-36.06591796875
-14.130126953125,30.130126953125,124.22607421875,-32.22607421875
-14.13427734375,30.13427734375,124.16259765625,-32.16259765625
-20.702392578125,24.702392578125,118.0322265625,-38.0322265625
-5.5863037109375,41.5863037109375,121.96484375,-33.96484375
-18.435546875,30.435546875,126.01904296875,-30.01904296875
-4.9501953125,44.9501953125,114.17529296875,-42.17529296875
-15.003662109375,35.003662109375,114.36669921875,-42.36669921875
-4.68017578125,44.68017578125,114.53125,-42.53125
-10.21923828125,38.21923828125,116.65283203125,-40.65283203125
-5.8934326171875,41.8934326171875,118.77685546875,-38.77685546875
-7.8814697265625,39.8814697265625,128.97802734375,-28.97802734375
-18.1761474609375,30.1761474609375,121.31005859375,-37.31005859375
-18.5653076171875,30.5653076171875,117.7470703125,-41.7470703125
-4.7218017578125,44.7218017578125,118.15625,-42.15625
-10.3843994140625,38.3843994140625,122.3330078125,-38.3330078125
-17.538330078125,29.538330078125,130.10546875,-30.10546875
-6.473876953125,38.473876953125,125.4560546875,-33.4560546875
-15.669921875,27.669921875,112.5849609375,-44.5849609375
-1.542236328125,41.542236328125,107.83251953125,-47.83251953125
-20.2110595703125,24.2110595703125,107.5126953125,-47.5126953125
-7.4056396484375,39.4056396484375,113.73876953125,-41.73876953125
-20.584716796875,28.584716796875,126.3720703125,-30.3720703125
-15.201171875,35.201171875,119.10888671875,-39.10888671875
-18.9625244140625,30.9625244140625,123.650390625,-35.650390625
-17.95458984375,29.95458984375,113.845703125,-45.845703125
-6.5848388671875,38.5848388671875,109.744140625,-49.744140625
-7.3853759765625,35.3853759765625,115.5341796875,-43.5341796875
-2.77685546875,38.77685546875,113.427734375,-45.427734375
-2.873046875,38.873046875,115.53125,-43.53125
-17.416015625,25.416015625,113.79931640625,-45.79931640625
-7.884765625,35.884765625,126.05419921875,-34.05419921875
-5.740478515625,37.740478515625,124.0654296875,-36.0654296875
-12.6961669921875,28.6961669921875,109.6591796875,-49.6591796875
-6.8780517578125,30.8780517578125,122.80419921875,-34.80419921875
-2.7841796875,30.7841796875,111.66259765625,-43.66259765625
-9.0557861328125,21.0557861328125,114.56298828125,-38.56298828125
-2.17431640625,26.17431640625,115.8896484375,-35.8896484375
1.758056640625,30.241943359375,125.9345703125,-25.9345703125
-4.9520263671875,24.9520263671875,112.7841796875,-40.7841796875
4.260986328125,35.739013671875,120.28125,-36.28125
-8.0152587890625,24.0152587890625,118.0908203125,-42.0908203125
-5.3939208984375,25.3939208984375,117.818359375,-45.818359375
-11.82861328125,15.82861328125,131.1435546875,-35.1435546875
-5.65673828125,17.65673828125,131.90185546875,-35.90185546875
-5.5113525390625,13.5113525390625,116.1064453125,-52.1064453125
5.9017333984375,22.0982666015625,115.89697265625,-51.89697265625
-1.884521484375,13.884521484375,113.46533203125,-53.46533203125
5.160400390625,22.839599609375,116.974609375,-48.974609375
7.593505859375,28.406494140625,132.51513671875,-32.51513671875
2.236083984375,25.763916015625,130.10595703125,-34.10595703125
3.7703857421875,28.2296142578125,121.74951171875,-41.74951171875
8.4058837890625,31.5941162109375,121.49609375,-41.49609375
-2.195068359375,18.195068359375,115.4619140625,-47.4619140625
1.291015625,18.708984375,127.79345703125,-35.79345703125
0.1964111328125,15.8035888671875,126.56201171875,-38.56201171875
8.149169921875,23.850830078125,123.69677734375,-43.69677734375
7.1719970703125,24.8280029296875,122.9736328125,-46.9736328125
3.6004638671875,24.3995361328125,128.083984375,-44.083984375
7.9178466796875,32.0821533203125,118.7333984375,-54.7333984375
2.5999755859375,29.4000244140625,126.73486328125,-46.73486328125
-4.016845703125,24.016845703125,122.0703125,-50.0703125
4.1697998046875,31.8302001953125,126.8984375,-42.8984375
-1.0164794921875,25.0164794921875,117.51806640625,-49.51806640625
2.02587890625,25.97412109375,116.27734375,-48.27734375
4.8447265625,27.1552734375,113.46484375,-49.46484375
7.1290283203125,28.8709716796875,121.21240234375,-41.21240234375
-1.16796875,21.16796875,129.45361328125,-33.45361328125
-9.87353515625,13.87353515625,111.9677734375,-51.9677734375
-0.730712890625,24.730712890625,114.49462890625,-50.49462890625
2.4525146484375,29.5474853515625,124.8759765625,-40.8759765625
5.7506103515625,34.2493896484375,123.1376953125,-43.1376953125
-4.847412109375,24.847412109375,113.4677734375,-53.4677734375
-1.369384765625,29.369384765625,114.07763671875,-54.07763671875
2.199951171875,33.800048828125,121.0595703125,-49.0595703125
-4.0633544921875,28.0633544921875,126.30517578125,-46.30517578125
-8.054931640625,24.054931640625,131.556640625,-43.556640625
0.3021240234375,31.6978759765625,118.53515625,-58.53515625
-10.98291015625,18.98291015625,133.06494140625,-45.06494140625
4.0186767578125,31.9813232421875,137.13037109375,-41.13037109375
-10.8358154296875,14.8358154296875,132.861328125,-44.861328125
6.2490234375,29.7509765625,118.46240234375,-58.46240234375
-0.9449462890625,20.9449462890625,118.13671875,-58.13671875
5.43212890625,26.56787109375,124.00732421875,-52.00732421875
-6.622314453125,14.622314453125,124.0927734375,-52.0927734375
7.058837890625,28.941162109375,122.32861328125,-54.32861328125
-9.251708984375,13.251708984375,136.6005859375,-40.6005859375
-7.2806396484375,15.2806396484375,136.79638671875,-40.79638671875
1.13525390625,22.86474609375,138.833984375,-38.833984375
1.9854736328125,22.0145263671875,124.70361328125,-52.70361328125
7.0899658203125,24.9100341796875,126.49755859375,-50.49755859375
4.1600341796875,19.8399658203125,130.38525390625,-46.38525390625
-1.0782470703125,13.0782470703125,128.54345703125,-48.54345703125
7.2379150390625,20.7620849609375,135.06005859375,-43.06005859375
9.1947021484375,22.8052978515625,125.8837890625,-53.8837890625
11.0858154296875,24.9141845703125,126.8310546875,-54.8310546875
3.293701171875,16.706298828125,129.65087890625,-53.65087890625
8.0743408203125,19.9256591796875,124.0986328125,-60.0986328125
15.36279296875,24.63720703125,140.021484375,-44.021484375
8.73095703125,15.26904296875,137.41650390625,-45.41650390625
3.571533203125,8.428466796875,130.44384765625,-50.44384765625
3.4315185546875,8.5684814453125,129.35400390625,-49.35400390625
4.3021240234375,11.6978759765625,122.3623046875,-54.3623046875
10.6533203125,21.3466796875,121.552734375,-53.552734375
3.1732177734375,16.8267822265625,128.85400390625,-44.85400390625
2.3687744140625,17.6312255859375,122.10302734375,-50.10302734375
8.279541015625,23.720458984375,127.16650390625,-43.16650390625
-5.501220703125,9.501220703125,128.01904296875,-40.01904296875
8.4918212890625,23.5081787109375,126.77001953125,-38.77001953125
5.992919921875,22.007080078125,121.60546875,-41.60546875
-4.7950439453125,12.7950439453125,122.68994140625,-38.68994140625
8.6739501953125,27.3260498046875,116.1142578125,-44.1142578125
-5.08203125,13.08203125,129.89501953125,-29.89501953125
-3.9337158203125,11.9337158203125,116.01025390625,-44.01025390625
13.7376708984375,26.2623291015625,116.41796875,-44.41796875
3.2252197265625,12.7747802734375,121.02685546875,-41.02685546875
5.86962890625,14.13037109375,125.6630859375,-37.6630859375
5.39501953125,14.60498046875,126.1044921875,-38.1044921875
-3.9705810546875,7.9705810546875,120.16015625,-44.16015625
