V1,V2,V3,V4
6.8,5.2,36.0,36.0
10.3,9.7,42.0,42.0
12.95,11.05,44.75,47.25
4.8,3.2,44.3,47.7
11.7,12.3,40.65,43.35
18.05,21.95,39.25,40.75
2.7,9.3,33.45,34.55
0.20000000000000018,7.8,28.8,31.2
4.65,11.35,45.2,50.8
13.4,18.6,31.35,40.65
15.8,20.2,32.2,43.8
5.3,10.7,44.45,55.55
10.2,17.8,36.05,43.95
1.0999999999999996,10.9,28.35,31.65
6.6,17.4,36.4,35.6
-3.05,7.05,51.4,48.6
11.8,20.2,33.3,30.7
4.5,11.5,44.6,43.4
6.6,13.4,34.0,34.0
-1.85,5.85,36.15,35.85
7.35,16.65,35.15,32.85
4.8,15.2,48.85,43.15
12.7,23.3,34.75,25.25
11.05,20.95,54.15,41.85
3.55,12.45,40.6,27.4
12.15,19.85,36.0,24.0
6.8,13.2,52.6,43.4
13.7,18.3,33.0,27.0
7.05,8.95,49.75,46.25
6.7,5.3,31.15,28.85
12.25,7.75,45.1,42.9
11.05,4.95,37.4,34.6
16.7,11.3,51.9,48.1
9.3,6.7,34.8,29.2
5.45,6.55,38.1,29.9
6.15,9.85,53.7,42.3
6.1,9.9,55.0,41.0
13.55,14.45,55.35,40.65
3.95,0.050000000000000044,42.3,29.7
24.35,15.65,40.1,31.9
19.6,8.4,51.35,48.65
7.15,-3.1500000000000004,45.1,46.9
19.0,13.0,46.0,50.0
15.95,16.05,38.35,41.65
7.05,12.95,33.85,34.15
7.2,16.8,35.95,32.05
2.9000000000000004,13.1,43.75,36.25
-0.04999999999999982,8.05,44.5,35.5
-0.04999999999999982,4.05,53.7,46.3
8.1,7.9,41.55,38.45
9.75,6.25,47.0,49.0
6.35,1.65,41.15,46.85
3.4,0.6000000000000001,30.85,37.15
14.85,17.15,40.35,43.65
13.1,22.9,35.0,33.0
-4.949999999999999,12.95,39.7,32.3
-6.199999999999999,18.2,37.3,26.7
-9.65,17.65,37.15,26.85
-2.75,22.75,39.5,32.5
-1.9499999999999993,17.95,35.05,32.95
5.55,18.45,42.9,45.1
0.25,7.75,48.0,52.0
13.0,19.0,40.5,43.5
11.5,20.5,32.1,31.9
0.5999999999999996,15.4,51.85,48.15
-6.199999999999999,14.2,32.9,27.1
-7.65,15.65,36.65,31.35
-7.1,15.1,31.3,28.7
3.0,21.0,29.4,30.6
-0.4500000000000002,12.45,27.7,32.3
3.3,12.7,42.65,49.35
9.95,18.05,34.2,41.8
9.75,18.25,42.0,50.0
3.6500000000000004,12.35,27.6,36.4
14.2,21.8,42.65,53.35
5.45,10.55,35.3,48.7
10.65,13.35,25.9,42.1
7.05,8.95,41.15,58.85
10.0,14.0,27.6,44.4
-2.55,6.55,33.75,46.25
5.800000000000001,22.2,31.8,36.2
-8.65,16.65,33.65,26.35
-1.75,33.75,50.75,29.25
-7.399999999999999,39.4,66.35,29.65
-23.45,35.45,73.5,22.5
-31.65,39.65,69.35,6.649999999999999
-25.1,57.1,65.55,-5.549999999999997
-32.95,56.95,77.85,2.1499999999999986
-28.4,64.4,68.7,-8.700000000000003
-37.55,53.55,68.6,-8.600000000000001
-40.9,44.9,78.1,1.8999999999999986
-19.799999999999997,59.8,73.7,-1.7000000000000028
-33.25,41.25,73.55,-1.5499999999999972
-28.15,44.15,81.8,6.200000000000003
-20.799999999999997,52.8,84.25,7.75
-22.25,54.25,71.05,-7.049999999999997
-27.4,51.4,81.6,2.3999999999999986
-19.35,59.35,86.0,6.0
-35.65,39.65,70.15,-10.149999999999999
-30.700000000000003,38.7,70.05,-10.049999999999997
-27.6,35.6,88.1,7.899999999999999
-23.45,35.45,76.3,-4.299999999999997
-27.05,31.05,86.45,5.549999999999997
-10.5,50.5,84.6,3.3999999999999986
-23.4,43.4,76.45,-4.450000000000003
-31.0,43.0,83.95,4.049999999999997
-34.45,46.45,79.3,0.7000000000000028
-29.0,57.0,82.9,5.100000000000001
-40.0,48.0,72.9,-4.899999999999999
-33.8,53.8,73.3,-5.299999999999997
-30.6,54.6,87.85,8.149999999999999
-21.15,61.15,86.4,5.600000000000001
-24.1,56.1,80.7,-0.7000000000000028
-29.200000000000003,49.2,90.95,9.049999999999997
-22.4,54.4,79.55,-3.549999999999997
-29.15,45.15,78.3,-6.299999999999997
-21.450000000000003,49.45,75.3,-11.299999999999997
-27.65,39.65,91.85,4.149999999999999
-24.049999999999997,40.05,91.5,4.5
-28.95,32.95,82.0,-2.0
-28.5,32.5,89.7,10.299999999999997
-16.65,44.65,79.15,4.850000000000001
-15.350000000000001,47.35,69.7,-1.7000000000000028
-14.799999999999997,50.8,76.05,3.950000000000003
-29.450000000000003,41.45,70.4,-6.399999999999999
-18.950000000000003,58.95,76.2,-8.200000000000003
-36.9,48.9,81.7,-9.700000000000003
-34.3,58.3,95.75,0.25
-38.1,58.1,97.15,2.8500000000000014
-41.9,53.9,86.45,-2.450000000000003
-34.35,58.35,90.55,9.450000000000003
-30.450000000000003,58.45,85.0,11.0
-25.35,61.35,65.1,-5.100000000000001
-33.45,53.45,69.0,-1.0
-42.4,46.4,72.2,-0.20000000000000284
-29.35,61.35,68.0,-8.0
-29.549999999999997,61.55,77.55,-1.5499999999999972
-36.7,52.7,72.35,-8.350000000000001
-29.200000000000003,57.2,90.55,9.450000000000003
-35.7,47.7,74.05,-6.049999999999997
-34.75,46.75,83.5,4.5
-24.85,56.85,75.15,-3.1499999999999986
-37.65,45.65,89.2,10.799999999999997
-39.2,47.2,87.65,8.350000000000001
-40.65,48.65,82.35,1.6499999999999986
-39.65,51.65,88.65,7.350000000000001
-27.75,63.75,70.55,-10.549999999999997
-41.05,49.05,79.85,0.14999999999999858
-41.7,45.7,88.85,11.149999999999999
-32.25,52.25,76.05,-0.04999999999999716
-21.200000000000003,61.2,73.9,-1.8999999999999986
-32.8,48.8,74.7,-2.700000000000003
-27.299999999999997,55.3,74.3,-6.299999999999997
-22.299999999999997,62.3,86.15,1.8500000000000014
-23.299999999999997,63.3,83.6,-3.6000000000000014
-37.9,49.9,76.05,-12.049999999999997
-31.75,55.75,87.45,0.5499999999999972
-23.299999999999997,63.3,83.95,0.04999999999999716
-40.8,44.8,76.5,-4.5
-25.049999999999997,61.05,79.7,0.29999999999999716
-29.950000000000003,57.95,85.85,6.149999999999999
-25.200000000000003,65.2,90.4,9.600000000000001
-41.95,49.95,73.0,-9.0
-41.45,49.45,79.0,-3.0
-39.55,47.55,90.15,9.850000000000001
-30.75,50.75,84.9,7.100000000000001
-30.200000000000003,46.2,73.55,-1.5499999999999972
-33.1,41.1,84.9,11.100000000000001
-30.15,46.15,83.25,8.75
-20.9,60.9,78.5,1.5
-34.3,54.3,79.95,0.04999999999999716
-30.65,62.65,73.0,-9.0
-35.15,59.15,72.95,-8.950000000000003
-33.15,57.15,85.85,6.149999999999999
-25.6,57.6,78.25,1.75
-36.25,40.25,72.65,-0.6499999999999986
-22.450000000000003,50.45,80.05,7.950000000000003
-16.799999999999997,56.8,86.55,13.450000000000003
-28.799999999999997,48.8,82.0,6.0
-29.5,53.5,89.75,10.25
-24.049999999999997,64.05,77.15,-5.149999999999999
-39.5,51.5,87.7,4.299999999999997
-42.05,50.05,85.4,2.6000000000000014
-31.85,59.85,82.35,1.6499999999999986
-31.4,59.4,78.9,1.1000000000000014
-32.65,56.65,87.2,12.799999999999997
-39.8,47.8,79.75,8.25
-26.85,58.85,78.8,9.200000000000003
-31.65,51.65,76.35,7.649999999999999
-28.35,52.35,82.4,13.600000000000001
-27.15,51.15,66.65,-2.6499999999999986
-26.25,50.25,65.0,-5.0
-27.65,47.65,73.45,2.549999999999997
-17.200000000000003,57.2,65.8,-5.799999999999997
-34.75,38.75,74.05,1.9500000000000028
-18.1,54.1,76.2,3.799999999999997
-17.450000000000003,53.45,74.25,1.75
-28.9,40.9,66.45,-6.450000000000003
-18.5,50.5,86.65,13.350000000000001
-32.65,36.65,77.1,2.8999999999999986
-21.200000000000003,49.2,67.55,-7.549999999999997
-28.1,44.1,67.8,-7.799999999999997
-25.299999999999997,49.3,71.75,-3.75
-32.75,44.75,81.5,6.5
-26.299999999999997,54.3,73.3,-1.2999999999999972
-37.8,45.8,73.8,-1.7999999999999972
-35.05,51.05,73.2,-5.200000000000003
-29.549999999999997,57.55,91.05,8.950000000000003
-25.25,61.25,92.9,7.100000000000001
-38.35,46.35,82.2,-6.200000000000003
-37.45,45.45,88.4,-0.3999999999999986
-27.15,55.15,91.9,4.100000000000001
-23.950000000000003,59.95,83.1,-3.1000000000000014
-35.65,51.65,78.2,-6.200000000000003
-31.450000000000003,59.45,79.6,-3.6000000000000014
-42.35,50.35,75.35,-7.350000000000001
-36.1,56.1,89.3,6.700000000000003
-30.799999999999997,58.8,73.2,-9.200000000000003
-39.45,47.45,82.95,1.0499999999999972
-23.200000000000003,63.2,72.4,-8.399999999999999
-36.6,52.6,79.8,0.20000000000000284
-35.0,59.0,79.6,0.3999999999999986
-37.6,61.6,79.8,0.20000000000000284
-37.05,65.05,80.4,-0.3999999999999986
-39.05,63.05,73.0,-9.0
-43.3,55.3,83.05,0.9500000000000028
-38.95,54.95,88.2,7.799999999999997
-40.95,48.95,86.75,9.25
-40.15,48.15,71.3,-3.299999999999997
-34.55,54.55,86.55,13.450000000000003
-34.3,58.3,73.05,-1.0499999999999972
-32.3,64.3,72.5,-4.5
-31.85,67.85,90.3,9.700000000000003
-46.3,54.3,77.5,-5.5
-37.05,61.05,88.05,3.950000000000003
-32.85,60.85,89.55,6.450000000000003
-38.3,50.3,78.35,-2.3500000000000014
-24.5,60.5,76.65,-0.6499999999999986
-34.2,50.2,82.85,9.149999999999999
-33.3,53.3,83.15,12.850000000000001
-33.0,57.0,80.0,12.0
-32.7,60.7,67.9,0.10000000000000142
-29.200000000000003,65.2,85.0,15.0
-42.55,50.55,87.3,12.700000000000003
-35.0,55.0,73.85,-5.850000000000001
-23.200000000000003,63.2,91.7,8.299999999999997
-27.549999999999997,55.55,92.15,7.850000000000001
-24.25,56.25,80.85,-0.8500000000000014
-35.35,43.35,84.7,7.299999999999997
-18.6,58.6,80.95,7.049999999999997
-35.95,39.95,78.4,5.600000000000001
-23.65,51.65,87.25,12.75
-31.75,43.75,80.85,3.1499999999999986
-36.8,40.8,84.3,3.700000000000003
-36.85,44.85,82.9,1.1000000000000014
-31.85,55.85,84.45,3.549999999999997
-41.2,53.2,73.65,-5.649999999999999
-40.25,60.25,71.35,-7.350000000000001
-41.75,61.75,87.8,8.200000000000003
-37.25,65.25,82.85,1.1499999999999986
-37.0,61.0,83.8,0.20000000000000284
-35.85,55.85,80.0,-4.0
-39.2,47.2,73.35,-9.350000000000001
-22.200000000000003,62.2,74.35,-6.350000000000001
-29.450000000000003,57.45,75.55,-3.549999999999997
-26.0,66.0,83.5,4.5
-36.35,60.35,83.9,4.100000000000001
-36.65,60.65,86.5,5.5
-36.1,56.1,74.55,-6.549999999999997
-31.1,51.1,71.9,-7.899999999999999
-19.5,51.5,79.15,0.8500000000000014
-15.7,47.7,88.65,11.350000000000001
-29.1,33.1,82.85,5.149999999999999
-17.799999999999997,49.8,79.75,0.25
-34.15,42.15,70.5,-10.5
-24.15,60.15,70.4,-10.399999999999999
-32.2,56.2,89.45,10.549999999999997
-40.0,48.0,83.65,8.350000000000001
-22.25,62.25,75.9,4.100000000000001
-30.450000000000003,50.45,78.85,9.149999999999999
-21.35,57.35,78.95,9.049999999999997
-33.3,45.3,65.8,-5.799999999999997
-36.05,44.05,79.0,5.0
-21.049999999999997,61.05,75.75,0.25
-38.25,46.25,81.85,6.149999999999999
-37.55,49.55,79.5,4.5
-35.0,55.0,72.95,-0.9500000000000028
-32.25,60.25,70.85,-2.8500000000000014
-34.95,58.95,77.25,2.75
-32.55,60.55,68.1,-8.100000000000001
-39.25,51.25,72.55,-4.549999999999997
-25.049999999999997,61.05,72.45,-4.450000000000003
-28.75,52.75,81.65,6.350000000000001
-20.700000000000003,56.7,86.65,13.350000000000001
-25.200000000000003,49.2,80.05,7.950000000000003
-34.3,38.3,86.2,13.799999999999997
-19.9,51.9,69.35,-5.350000000000001
-30.1,42.1,81.2,2.799999999999997
-30.75,42.75,77.1,-5.100000000000001
-31.799999999999997,43.8,88.25,3.75
-22.4,54.4,86.15,1.8500000000000014
-31.65,43.65,74.8,-6.799999999999997
-17.549999999999997,53.55,78.75,1.25
-18.200000000000003,46.2,74.95,1.0499999999999972
-14.95,42.95,86.1,13.899999999999999
-19.05,35.05,72.75,-0.75
-11.05,43.05,76.55,-0.5499999999999972
-16.85,40.85,78.9,-2.8999999999999986
-23.25,39.25,75.0,-11.0
-23.200000000000003,43.2,74.3,-14.299999999999997
-17.85,49.85,74.5,-14.5
-31.4,35.4,77.8,-9.799999999999997
-30.799999999999997,34.8,86.2,1.7999999999999972
-18.6,46.6,70.15,-10.149999999999999
-21.5,45.5,88.0,12.0
-31.200000000000003,39.2,78.7,5.299999999999997
-23.049999999999997,51.05,70.6,-2.6000000000000014
-32.05,44.05,87.65,12.350000000000001
-33.65,41.65,79.0,1.0
-31.75,39.75,75.9,-3.8999999999999986
-25.1,41.1,87.7,8.299999999999997
-14.5,46.5,76.35,-0.3500000000000014
-24.9,32.9,84.9,11.100000000000001
-26.55,30.55,66.25,-6.25
-27.1,31.1,76.8,3.200000000000003
-28.3,32.3,72.4,-4.399999999999999
-19.3,43.3,70.3,-10.299999999999997
-25.85,37.85,91.45,8.549999999999997
-20.15,44.15,91.4,8.600000000000001
-18.25,46.25,90.55,9.450000000000003
-30.5,34.5,77.4,-1.3999999999999986
-16.6,48.6,74.55,-2.549999999999997
-27.75,35.75,81.7,6.299999999999997
-8.8,48.8,68.4,-4.399999999999999
-12.850000000000001,32.85,77.95,10.049999999999997
-7.9,19.9,61.8,2.1999999999999993
9.5,14.5,54.55,5.449999999999999
25.85,6.15,60.9,23.1
39.55,-3.5500000000000007,45.8,18.2
35.3,-27.3,49.85,30.15
56.35,-20.35,47.0,33.0
60.7,-24.700000000000003,38.9,29.1
62.5,-26.5,45.15,38.85
48.45,-40.45,49.65,46.35
55.25,-31.25,48.55,47.45
61.55,-21.549999999999997,44.05,43.95
47.85,-31.85,48.3,47.7
47.0,-31.0,41.15,38.85
43.2,-35.2,48.25,43.75
44.35,-36.35,39.1,32.9
49.8,-33.8,49.25,42.75
45.2,-41.2,50.65,45.35
49.9,-37.9,49.5,46.5
58.1,-30.1,46.35,45.65
45.7,-41.7,45.55,46.45
61.1,-25.1,37.5,38.5
44.3,-40.3,48.1,47.9
53.7,-29.700000000000003,39.1,36.9
55.2,-27.200000000000003,44.0,40.0
58.5,-22.5,36.5,31.5
58.0,-22.0,40.35,35.65
55.95,-23.950000000000003,31.6,28.4
60.75,-20.75,34.35,33.65
54.55,-30.549999999999997,33.05,34.95
53.0,-37.0,33.9,38.1
57.35,-37.35,29.2,34.8
57.05,-41.05,44.95,51.05
61.65,-37.65,33.15,38.85
68.9,-28.9,47.6,52.4
53.3,-41.3,44.0,48.0
55.05,-35.05,38.2,41.8
60.9,-24.9,44.05,47.95
51.15,-31.15,39.65,44.35
60.45,-20.450000000000003,41.25,46.75
44.85,-36.85,45.1,50.9
62.4,-22.4,47.4,52.6
46.35,-42.35,34.1,37.9
63.7,-27.700000000000003,32.95,35.05
51.95,-39.95,49.85,50.15
58.85,-30.85,48.6,47.4
45.1,-41.1,45.0,43.0
59.75,-23.75,46.65,45.35
62.0,-22.0,31.15,32.85
56.0,-32.0,40.5,47.5
66.9,-26.9,35.3,48.7
65.2,-33.2,40.65,59.35
63.3,-35.3,23.6,44.4
59.4,-35.4,40.65,59.35
55.9,-31.9,43.35,56.65
58.5,-22.5,28.35,35.65
52.7,-24.700000000000003,32.5,35.5
55.3,-23.299999999999997,45.0,47.0
47.85,-35.85,46.15,49.85
63.0,-27.0,30.7,37.3
61.5,-33.5,31.7,40.3
66.4,-30.4,31.55,40.45
49.75,-45.75,32.3,39.7
64.25,-28.25,35.35,40.65
55.1,-35.1,42.0,46.0
59.1,-31.1,35.8,40.2
52.65,-40.65,30.85,37.15
69.2,-29.200000000000003,35.55,44.45
72.1,-32.1,30.45,41.55
60.0,-48.0,39.9,52.1
56.35,-52.35,37.9,50.1
55.2,-51.2,38.0,50.0
61.0,-41.0,31.7,44.3
50.9,-46.9,40.7,55.3
63.2,-31.200000000000003,23.0,41.0
66.55,-26.549999999999997,29.0,51.0
58.9,-34.9,31.1,56.9
59.65,-35.65,22.0,50.0
68.15,-28.15,34.15,61.85
60.2,-36.2,29.7,54.3
65.9,-29.9,20.35,39.65
63.55,-31.549999999999997,25.3,38.7
57.75,-37.75,31.35,40.65
54.9,-42.9,29.65,38.35
60.7,-40.7,24.15,35.85
62.65,-42.65,39.6,56.4
68.05,-40.05,35.2,56.8
62.55,-46.55,17.95,42.05
62.05,-46.05,28.2,51.8
61.0,-45.0,31.4,52.6
71.95,-31.950000000000003,34.8,53.2
57.15,-45.15,39.6,56.4
52.9,-48.9,27.45,44.55
69.05,-33.05,30.85,49.15
71.5,-31.5,40.25,59.75
64.1,-40.1,24.25,43.75
56.4,-48.4,30.8,49.2
60.25,-44.25,39.55,56.45
71.35,-31.35,28.2,43.8
53.8,-45.8,34.6,49.4
65.75,-29.75,22.9,37.1
53.6,-37.6,27.35,40.65
48.0,-40.0,29.85,42.15
45.3,-41.3,28.05,39.95
46.1,-42.1,35.6,48.4
54.05,-38.05,40.45,55.55
68.8,-28.799999999999997,40.9,59.1
69.3,-33.3,37.6,58.4
70.6,-34.6,34.95,57.05
60.25,-44.25,33.2,54.8
70.45,-30.450000000000003,38.1,57.9
55.65,-39.65,33.3,50.7
46.2,-42.2,38.45,53.55
55.15,-27.15,25.5,38.5
54.7,-22.700000000000003,34.4,45.6
45.7,-29.700000000000003,44.95,55.05
54.1,-22.1,38.9,49.1
45.85,-33.85,26.2,37.8
52.5,-32.5,34.9,49.1
59.35,-31.35,21.4,38.6
61.65,-33.65,30.3,49.7
59.35,-39.35,20.0,40.0
52.05,-48.05,38.55,57.45
55.9,-43.9,21.85,38.15
55.35,-43.35,39.15,52.85
54.9,-42.9,42.15,53.85
62.25,-34.25,38.55,49.45
49.85,-45.85,40.65,51.35
67.45,-27.450000000000003,32.7,43.3
53.15,-41.15,41.0,51.0
57.1,-37.1,35.5,44.5
59.35,-35.35,45.9,54.1
59.85,-35.85,37.95,46.05
58.5,-38.5,37.5,46.5
55.6,-43.6,28.4,39.6
70.55,-30.549999999999997,26.85,41.15
65.55,-37.55,41.05,58.95
56.3,-48.3,39.55,60.45
63.1,-43.1,38.75,61.25
57.45,-49.45,34.9,57.1
63.6,-43.6,21.85,42.15
69.2,-37.2,20.95,39.05
58.45,-46.45,41.55,58.45
69.4,-33.4,33.3,50.7
56.35,-44.35,36.25,55.75
57.05,-41.05,32.85,55.15
60.05,-36.05,23.9,48.1
51.2,-43.2,37.75,62.25
66.55,-26.549999999999997,18.35,41.65
54.65,-38.65,19.3,40.7
67.0,-27.0,24.05,43.95
51.3,-43.3,22.2,41.8
55.55,-39.55,35.85,56.15
53.65,-41.65,19.35,40.65
63.55,-31.549999999999997,27.0,49.0
59.55,-35.55,33.1,54.9
57.9,-37.9,19.4,40.6
56.35,-40.35,21.6,42.4
60.85,-36.85,19.45,40.55
63.25,-35.25,27.1,48.9
69.55,-29.549999999999997,30.6,53.4
69.55,-29.549999999999997,38.55,61.45
59.6,-39.6,34.95,57.05
57.5,-41.5,25.8,46.2
53.75,-45.75,24.5,43.5
54.15,-46.15,26.8,45.2
62.6,-38.6,20.45,39.55
68.9,-32.9,23.65,44.35
63.1,-39.1,34.8,57.2
62.85,-38.85,34.1,57.9
68.7,-32.7,25.6,50.4
70.85,-30.85,17.3,42.7
63.3,-39.3,35.0,61.0
62.2,-42.2,34.8,61.2
63.05,-43.05,34.8,61.2
67.5,-39.5,29.15,54.85
71.6,-35.6,18.0,42.0
71.15,-35.15,23.2,44.8
70.4,-34.4,34.5,53.5
63.8,-39.8,29.4,46.6
63.7,-39.7,25.65,42.35
68.1,-36.1,23.25,40.75
64.55,-40.55,26.45,45.55
70.55,-34.55,33.55,54.45
69.6,-33.6,27.05,48.95
51.65,-47.65,33.0,55.0
61.1,-33.1,25.4,46.6
60.3,-28.299999999999997,38.05,57.95
60.05,-24.049999999999997,40.8,59.2
54.85,-26.85,27.5,44.5
58.95,-22.950000000000003,29.9,46.1
56.4,-28.4,21.65,38.35
58.65,-30.65,32.6,51.4
49.15,-45.15,30.8,53.2
66.85,-30.85,18.8,45.2
69.2,-29.200000000000003,33.45,62.55
64.15,-32.15,31.55,60.45
66.3,-26.299999999999997,31.15,56.85
46.4,-42.4,37.55,58.45
63.35,-23.35,23.6,40.4
55.4,-31.4,40.4,55.6
56.45,-32.45,35.55,52.45
53.9,-37.9,23.55,44.45
53.1,-41.1,31.25,56.75
60.1,-36.1,21.45,50.55
68.7,-28.700000000000003,20.7,51.3
51.45,-47.45,31.1,60.9
69.9,-29.9,34.15,61.85
70.2,-30.200000000000003,29.35,54.65
52.1,-48.1,30.2,53.8
59.75,-39.75,22.5,45.5
56.9,-40.9,28.45,51.55
53.9,-41.9,20.3,43.7
51.25,-43.25,36.35,59.65
53.0,-41.0,30.6,53.4
55.65,-39.65,20.9,43.1
65.4,-33.4,33.05,54.95
69.65,-33.65,33.05,54.95
73.75,-33.75,29.05,50.95
62.65,-46.65,25.35,46.65
69.4,-37.4,19.85,40.15
68.4,-32.4,30.6,49.4
50.8,-42.8,39.25,56.75
56.05,-32.05,21.65,38.35
55.6,-31.6,29.65,46.35
53.8,-37.8,31.25,48.75
69.95,-29.950000000000003,20.55,39.45
56.05,-52.05,35.6,56.4
62.9,-50.9,22.8,45.2
73.0,-41.0,36.4,59.6
60.7,-48.7,26.55,49.45
69.45,-33.45,35.05,56.95
56.7,-40.7,37.65,58.35
63.75,-31.75,21.85,42.15
65.15,-33.15,35.65,56.35
64.05,-40.05,29.15,50.85
61.05,-49.05,22.75,45.25
58.5,-54.5,24.7,47.3
69.45,-41.45,33.0,55.0
66.45,-38.45,35.55,56.45
60.45,-36.45,29.95,50.05
47.15,-43.15,19.95,40.05
64.0,-24.0,29.35,50.65
59.15,-31.15,28.4,51.6
63.95,-31.950000000000003,21.45,46.55
56.75,-44.75,25.0,51.0
55.8,-47.8,25.4,50.6
60.8,-40.8,30.45,53.55
56.1,-40.1,27.55,48.45
49.15,-41.15,19.9,40.1
61.65,-25.65,31.0,53.0
48.45,-40.45,27.05,52.95
59.35,-35.35,32.75,63.25
70.8,-30.799999999999997,29.0,63.0
57.6,-49.6,22.35,57.65
66.45,-42.45,18.95,53.05
63.0,-43.0,16.25,47.75
66.05,-34.05,35.55,64.45
52.7,-40.7,16.3,43.7
52.05,-36.05,28.2,55.8
45.05,-41.05,35.45,64.55
49.75,-37.75,30.5,61.5
63.65,-27.65,19.85,52.15
64.05,-32.05,19.8,52.2
60.1,-40.1,32.3,63.7
53.1,-49.1,32.9,63.1
65.25,-37.25,19.3,48.7
57.0,-45.0,27.1,56.9
67.15,-35.15,16.45,47.55
65.9,-37.9,15.45,48.55
63.4,-43.4,24.5,59.5
73.55,-37.55,13.649999999999999,50.35
76.1,-40.1,19.05,56.95
77.4,-45.4,20.75,59.25
85.75,-45.75,10.899999999999999,49.1
74.1,-70.1,21.5,58.5
85.65,-77.65,12.350000000000001,47.65
101.4,-89.4,17.1,50.9
117.0,-113.0,23.25,56.75
142.55,-138.55,20.55,55.45
186.65,-158.65,12.75,51.25
229.45,-189.45,10.350000000000001,53.65
267.05,-231.05,25.9,74.1
309.65,-269.65,9.95,62.05
346.75,-306.75,6.949999999999999,61.05
371.2,-347.2,3.0,57.0
392.8,-376.8,23.75,76.25
412.15,-396.15,10.850000000000001,61.15
428.5,-404.5,9.7,58.3
427.35,-423.35,9.95,58.05
439.85,-419.85,11.3,60.7
441.5,-425.5,3.9499999999999993,56.05
438.85,-430.85,10.3,65.7
439.75,-427.75,18.55,77.45
435.85,-423.85,15.3,76.7
438.9,-402.9,-1.3000000000000007,61.3
428.6,-388.6,5.050000000000001,66.95
409.05,-381.05,20.05,79.95
400.1,-360.1,11.350000000000001,68.65
376.05,-356.05,2.1999999999999993,57.8
354.4,-350.4,18.2,73.8
360.85,-320.85,11.25,68.75
347.85,-311.85,13.7,74.3
325.55,-313.55,10.100000000000001,73.9
317.3,-301.3,4.899999999999999,71.1
317.3,-281.3,6.200000000000003,73.8
291.3,-287.3,0.0,68.0
295.3,-263.3,14.049999999999997,81.95
281.85,-257.85,4.049999999999997,71.95
276.9,-244.89999999999998,6.149999999999999,73.85
254.55,-250.55,10.350000000000001,77.65
265.0,-225.0,-3.299999999999997,63.3
258.15,-218.15,11.100000000000001,76.9
234.2,-226.2,15.700000000000003,80.3
236.0,-208.0,-1.75,61.75
229.45,-197.45,14.850000000000001,77.15
213.7,-197.7,1.25,62.75
208.65,-188.65,5.300000000000001,66.7
195.3,-191.3,1.25,62.75
190.8,-186.8,1.3000000000000007,62.7
199.25,-171.25,9.899999999999999,70.1
188.3,-176.3,1.1499999999999986,58.85
186.8,-170.8,18.6,73.4
180.75,-168.75,5.800000000000001,58.2
178.2,-162.2,14.0,66.0
177.4,-153.4,15.149999999999999,68.85
175.25,-147.25,1.4499999999999993,58.55
170.0,-146.0,-0.25,60.25
161.75,-149.75,12.95,75.05
163.1,-143.1,13.55,74.45
162.3,-138.3,1.3500000000000014,58.65
164.5,-128.5,5.75,58.25
155.85,-127.85,8.0,56.0
152.65,-120.65,9.649999999999999,54.35
136.25,-128.25,24.2,67.8
140.75,-116.75,9.649999999999999,54.35
131.9,-119.9,10.45,57.55
138.45,-110.45,19.05,68.95
134.3,-110.3,15.8,68.2
128.0,-112.0,15.0,69.0
118.9,-114.9,6.800000000000001,61.2
115.5,-111.5,21.15,74.85
128.2,-92.2,13.8,66.2
120.85,-92.85,24.6,75.4
115.8,-91.8,15.3,64.7
106.55,-94.55,5.75,54.25
99.8,-95.8,23.65,72.35
113.5,-77.5,17.15,66.85
102.55,-86.55,8.100000000000001,59.9
102.5,-86.5,5.0,59.0
102.9,-86.9,12.05,67.95
99.55,-91.55,21.9,78.1
107.45,-83.45,6.649999999999999,61.35
108.6,-80.6,6.0,58.0
113.25,-73.25,13.5,62.5
104.0,-80.0,12.55,59.45
99.45,-83.45,24.95,71.05
107.45,-75.45,12.8,59.2
101.55,-81.55,24.45,71.55
97.3,-85.3,26.15,73.85
98.25,-82.25,16.1,63.9
108.9,-68.9,19.95,68.05
90.6,-82.6,9.55,58.45
94.15,-74.15,24.95,75.05
97.65,-65.65,10.350000000000001,61.65
99.8,-59.8,9.850000000000001,62.15
89.35,-69.35,15.399999999999999,68.6
89.65,-69.65,22.85,77.15
98.55,-62.55,8.05,63.95
101.45,-61.45,1.1499999999999986,58.85
91.8,-71.8,14.45,73.55
91.6,-71.6,14.55,73.45
85.15,-77.15,19.55,76.45
96.4,-64.4,21.1,74.9
89.2,-69.2,6.899999999999999,57.1
81.8,-73.8,26.3,73.7
82.2,-70.2,27.3,72.7
94.95,-54.95,9.8,54.2
92.55,-56.55,10.0,54.0
94.95,-54.95,24.15,67.85
90.35,-62.349999999999994,14.25,57.75
95.85,-59.849999999999994,28.05,71.95
89.15,-69.15,27.7,72.3
91.7,-67.7,9.2,54.8
97.45,-61.45,27.05,72.95
83.15,-75.15,7.350000000000001,52.65
89.2,-69.2,20.15,63.85
95.95,-63.95,18.9,61.1
92.9,-68.9,23.2,64.8
85.65,-77.65,24.6,67.4
99.15,-63.150000000000006,17.3,62.7
94.9,-62.900000000000006,25.95,74.05
92.1,-60.099999999999994,21.2,70.8
89.4,-57.400000000000006,25.35,74.65
89.75,-53.75,14.25,61.75
89.5,-53.5,15.3,60.7
84.4,-60.400000000000006,11.75,56.25
77.65,-69.65,23.3,68.7
92.65,-56.650000000000006,13.850000000000001,62.15
92.8,-56.8,20.05,71.95
86.65,-62.650000000000006,4.350000000000001,59.65
84.2,-64.2,21.4,78.6
83.65,-63.650000000000006,1.3999999999999986,58.6
77.1,-69.1,6.050000000000001,61.95
82.55,-62.55,14.850000000000001,69.15
75.75,-67.75,9.2,62.8
79.1,-63.099999999999994,5.0,59.0
76.65,-64.65,16.45,71.55
76.35,-64.35,10.2,65.8
80.55,-60.55,12.75,67.25
75.4,-67.4,14.0,66.0
80.2,-64.2,15.350000000000001,64.65
92.45,-52.45,14.100000000000001,61.9
84.2,-60.2,26.0,74.0
90.75,-50.75,21.5,70.5
70.95,-66.95,7.300000000000001,56.7
71.05,-63.05,16.0,64.0
81.5,-49.5,9.55,54.45
68.7,-60.7,17.25,58.75
80.8,-48.8,14.0,54.0
75.25,-55.25,11.3,52.7
72.1,-60.099999999999994,21.2,66.8
69.15,-65.15,8.600000000000001,59.4
69.85,-65.85,16.75,71.25
84.5,-52.5,14.399999999999999,69.6
81.4,-57.400000000000006,7.649999999999999,60.35
76.35,-64.35,18.0,66.0
79.6,-63.599999999999994,14.600000000000001,57.4
78.7,-66.7,16.5,55.5
75.5,-71.5,13.25,50.75
89.65,-57.650000000000006,20.9,59.1
79.3,-67.3,9.850000000000001,50.15
74.6,-70.6,8.600000000000001,51.4
80.1,-64.1,25.85,70.15
87.7,-55.7,9.45,54.55
87.6,-55.599999999999994,7.350000000000001,52.65
91.45,-51.45,7.149999999999999,52.85
75.2,-67.2,18.9,65.1
82.75,-58.75,6.5,53.5
82.65,-58.650000000000006,18.45,65.55
89.1,-53.099999999999994,12.8,59.2
88.15,-56.150000000000006,7.550000000000001,52.45
79.8,-67.8,16.35,59.65
77.55,-73.55,12.8,55.2
85.1,-69.1,18.5,61.5
93.3,-61.3,25.8,70.2
82.45,-70.45,24.95,71.05
84.85,-64.85,16.3,63.7
75.05,-71.05,24.3,71.7
77.4,-65.4,26.85,73.15
80.85,-60.849999999999994,25.7,70.3
91.1,-51.099999999999994,16.7,59.3
90.35,-54.349999999999994,25.5,66.5
81.65,-65.65,30.05,69.95
84.75,-64.75,14.25,53.75
89.25,-61.25,18.0,58.0
91.1,-59.099999999999994,23.5,64.5
86.1,-62.099999999999994,24.7,67.3
78.5,-66.5,27.85,72.15
84.3,-56.3,9.149999999999999,54.85
76.0,-60.0,22.85,69.15
80.05,-52.05,13.100000000000001,58.9
78.85,-50.849999999999994,23.8,68.2
70.95,-58.95,26.65,69.35
78.1,-54.099999999999994,19.25,60.75
72.05,-64.05,19.35,60.65
75.8,-63.8,8.95,51.05
88.9,-52.900000000000006,10.2,53.8
90.8,-50.8,27.15,72.85
71.6,-67.6,20.1,67.9
72.0,-64.0,11.05,60.95
74.65,-58.650000000000006,10.3,61.7
76.1,-56.099999999999994,7.899999999999999,60.1
84.2,-48.2,8.0,60.0
80.8,-52.8,4.600000000000001,55.4
81.45,-53.45,25.35,74.65
73.85,-61.849999999999994,8.0,56.0
72.3,-64.3,14.149999999999999,61.85
84.8,-52.8,19.85,68.15
79.7,-59.7,13.149999999999999,62.85
84.45,-56.45,6.600000000000001,57.4
74.85,-66.85,16.4,67.6
88.6,-52.599999999999994,10.55,61.45
77.5,-61.5,24.8,75.2
69.8,-65.8,12.8,63.2
86.05,-46.05,6.5,57.5
77.0,-53.0,9.8,62.2
84.8,-44.8,3.25,56.75
69.35,-61.349999999999994,7.25,60.75
74.2,-58.2,6.199999999999999,57.8
74.45,-58.45,19.85,68.15
69.85,-61.849999999999994,15.850000000000001,60.15
68.65,-60.650000000000006,13.5,54.5
82.75,-42.75,12.149999999999999,51.85
73.2,-49.2,9.350000000000001,50.65
66.1,-54.1,21.3,66.7
61.55,-57.55,10.649999999999999,61.35
65.55,-53.55,4.350000000000001,59.65
70.1,-50.1,1.0,59.0
66.95,-54.95,9.0,67.0
64.4,-60.4,8.25,63.75
80.1,-48.099999999999994,21.9,74.1
71.95,-59.95,23.2,72.8
81.55,-53.55,15.600000000000001,64.4
72.1,-64.1,24.85,75.15
81.55,-53.55,3.3000000000000007,56.7
79.95,-51.95,13.55,70.45
66.0,-62.0,18.35,77.65
80.25,-44.25,14.0,74.0
81.2,-41.2,10.5,69.5
65.35,-57.35,19.75,76.25
82.0,-42.0,7.25,60.75
67.0,-59.0,20.45,71.55
69.35,-57.35,13.0,63.0
77.1,-49.1,18.7,69.3
77.8,-45.8,6.100000000000001,57.9
68.25,-52.25,13.600000000000001,66.4
63.15,-55.15,15.75,68.25
69.05,-49.05,16.5,67.5
72.35,-48.35,11.649999999999999,60.35
74.6,-50.6,14.600000000000001,61.4
80.7,-48.7,7.050000000000001,52.95
82.15,-50.150000000000006,26.85,73.15
72.5,-60.5,20.45,67.55
80.25,-52.25,14.2,61.8
69.45,-61.45,18.45,65.55
84.9,-44.900000000000006,21.4,66.6
80.65,-48.650000000000006,28.55,71.45
82.55,-46.55,27.35,68.65
82.3,-46.3,27.4,68.6
68.25,-60.25,18.5,61.5
84.2,-44.2,15.05,60.95
80.25,-48.25,11.600000000000001,60.4
83.85,-43.85,10.75,61.25
83.15,-43.15,16.95,67.05
72.2,-52.2,20.1,67.9
63.25,-59.25,21.5,66.5
64.7,-56.7,18.55,61.45
72.7,-48.7,12.75,55.25
81.1,-41.1,14.100000000000001,57.9
71.35,-51.35,16.9,63.1
72.95,-48.95,13.7,62.3
71.85,-47.85,24.95,75.05
72.2,-44.2,14.850000000000001,65.15
58.2,-54.2,13.3,62.7
70.8,-38.8,6.050000000000001,53.95
62.1,-46.1,6.899999999999999,53.1
70.35,-38.35,15.5,60.5
56.95,-52.95,21.65,66.35
67.7,-43.7,25.4,70.6
76.1,-36.1,6.899999999999999,53.1
72.3,-40.3,6.199999999999999,53.8
72.45,-40.45,11.600000000000001,60.4
76.65,-36.65,25.2,74.8
59.35,-55.35,13.350000000000001,62.65
66.3,-50.3,12.149999999999999,59.85
69.2,-49.2,21.45,66.55
61.4,-57.4,9.0,51.0
61.0,-57.0,20.35,59.65
67.55,-47.55,12.75,51.25
67.9,-43.9,30.1,69.9
56.55,-52.55,28.45,71.55
72.65,-36.65,12.25,59.75
58.0,-54.0,6.300000000000001,57.7
67.05,-51.05,5.100000000000001,58.9
64.2,-60.2,13.100000000000001,66.9
80.85,-48.849999999999994,16.3,67.7
76.1,-56.099999999999994,24.25,71.75
83.7,-47.7,8.100000000000001,51.9
77.95,-49.95,11.3,52.7
77.7,-45.7,29.35,70.65
61.8,-57.8,26.2,69.8
60.95,-56.95,10.45,57.55
79.25,-39.25,8.600000000000001,59.4
64.05,-56.05,11.45,64.55
75.2,-47.2,23.1,76.9
77.9,-45.9,15.55,68.45
76.0,-48.0,6.449999999999999,57.55
75.55,-47.55,13.25,62.75
78.95,-42.95,17.8,66.2
73.05,-49.05,10.0,58.0
63.6,-59.6,25.85,74.15
76.85,-48.85,17.75,66.25
80.4,-48.400000000000006,11.850000000000001,60.15
71.75,-59.75,20.15,67.85
67.7,-63.7,12.8,59.2
82.6,-46.599999999999994,11.600000000000001,56.4
72.45,-52.45,18.3,61.7
74.35,-46.35,26.75,69.25
70.75,-46.75,28.95,71.05
68.2,-48.2,22.8,65.2
62.55,-54.55,8.350000000000001,51.65
67.3,-51.3,9.899999999999999,54.1
62.1,-58.1,19.8,64.2
62.35,-58.35,18.35,61.65
66.65,-54.65,15.95,56.05
71.05,-51.05,18.25,53.75
77.9,-45.9,30.55,61.45
82.8,-42.8,26.1,53.9
67.4,-59.4,18.0,46.0
75.2,-51.2,16.15,47.85
78.25,-46.25,21.05,58.95
78.8,-42.8,10.05,53.95
68.9,-48.9,26.45,73.55
67.1,-47.1,18.85,65.15
61.9,-49.9,11.149999999999999,52.85
65.5,-45.5,14.2,49.8
63.65,-47.65,14.55,45.45
66.45,-46.45,21.1,50.9
77.35,-37.35,21.8,54.2
60.2,-56.2,23.25,60.75
62.95,-54.95,26.6,69.4
77.5,-41.5,6.949999999999999,53.05
66.0,-54.0,18.85,65.15
74.55,-46.55,16.25,59.75
74.9,-46.9,10.5,49.5
63.1,-59.1,24.95,59.05
64.85,-56.85,26.65,57.35
78.65,-42.65,23.15,52.85
76.5,-44.5,14.4,45.6
66.6,-54.6,12.8,47.2
77.3,-45.3,31.1,68.9
82.0,-42.0,27.7,68.3
80.7,-44.7,11.0,53.0
70.85,-54.85,24.95,67.05
72.1,-52.1,29.5,70.5
64.5,-56.5,24.35,63.65
76.25,-40.25,27.2,64.8
66.3,-46.3,11.75,48.25
62.9,-46.9,21.75,58.25
70.75,-38.75,21.2,58.8
69.35,-41.35,16.25,55.75
66.45,-46.45,19.45,60.55
63.3,-51.3,23.15,64.85
69.05,-45.05,21.55,62.45
75.85,-35.85,14.25,53.75
61.7,-45.7,11.0,49.0
69.35,-33.35,13.25,50.75
53.35,-45.35,21.15,58.85
62.5,-34.5,28.7,67.3
54.85,-42.85,26.1,65.9
54.3,-46.3,15.3,56.7
60.35,-44.35,18.15,61.85
62.35,-46.35,18.9,65.1
75.85,-35.85,17.8,66.2
68.5,-44.5,17.4,66.6
70.8,-42.8,6.0,54.0
60.85,-52.85,23.55,68.45
68.95,-44.95,19.4,60.6
71.3,-43.3,16.7,55.3
73.7,-41.7,22.75,61.25
75.95,-39.95,29.65,70.35
64.15,-52.15,23.9,68.1
70.3,-46.3,8.55,55.45
60.6,-56.6,16.35,63.65
73.15,-45.15,23.65,68.35
77.8,-41.8,25.9,66.1
76.35,-44.35,20.2,55.8
68.45,-52.45,15.649999999999999,48.35
64.45,-56.45,13.850000000000001,46.15
72.0,-48.0,31.1,64.9
77.4,-41.4,22.1,57.9
78.85,-38.85,27.55,64.45
70.2,-46.2,27.75,64.25
67.5,-47.5,32.5,67.5
61.35,-53.35,27.2,60.8
73.25,-41.25,17.15,50.85
67.85,-47.85,11.95,48.05
63.0,-55.0,27.95,68.05
70.95,-50.95,25.6,70.4
77.1,-49.1,15.899999999999999,64.1
78.55,-50.55,15.3,64.7
80.9,-48.900000000000006,19.95,68.05
75.95,-51.95,11.45,56.55
81.95,-41.95,25.25,66.75
62.35,-58.35,16.55,55.45
62.0,-58.0,12.899999999999999,51.1
81.85,-41.85,24.3,63.7
73.25,-57.25,21.05,62.95
73.25,-65.25,9.7,54.3
74.05,-70.05,18.65,65.35
81.0,-65.0,20.3,67.7
73.7,-69.7,16.65,63.35
75.0,-63.0,21.5,66.5
72.25,-60.25,8.55,51.45
66.35,-62.349999999999994,11.5,52.5
65.6,-61.6,21.95,62.05
73.95,-53.95,13.649999999999999,54.35
72.75,-56.75,12.55,55.45
85.35,-45.349999999999994,6.850000000000001,53.15
67.4,-63.400000000000006,9.05,58.95
70.85,-58.849999999999994,17.95,70.05
66.25,-62.25,13.899999999999999,66.1
83.5,-43.5,23.15,72.85
82.55,-42.55,14.95,61.05
71.8,-51.8,12.8,55.2
62.85,-58.85,25.85,66.15
65.9,-53.9,11.899999999999999,52.1
76.8,-40.8,25.1,66.9
70.3,-46.3,25.95,70.05
78.6,-38.6,26.95,73.05
67.5,-51.5,6.449999999999999,53.55
72.4,-48.4,16.4,63.6
68.55,-52.55,22.75,69.25
61.65,-57.65,15.100000000000001,60.9
71.75,-43.75,7.199999999999999,52.8
71.25,-39.25,12.850000000000001,59.15
69.15,-37.15,24.35,71.65
61.8,-41.8,9.75,58.25
69.7,-33.7,15.45,64.55
56.7,-48.7,5.5,54.5
58.1,-50.1,5.600000000000001,54.4
75.65,-35.65,21.5,70.5
58.6,-54.6,19.0,69.0
76.9,-36.9,16.3,67.7
68.3,-44.3,15.8,68.2
71.05,-39.05,10.100000000000001,61.9
66.0,-42.0,11.100000000000001,60.9
67.2,-39.2,8.399999999999999,55.6
66.35,-38.35,9.399999999999999,54.6
65.6,-37.6,7.600000000000001,52.4
66.65,-34.65,23.25,68.75
63.25,-35.25,16.7,63.3
59.45,-35.45,22.7,69.3
47.8,-43.8,17.5,62.5
54.65,-34.65,18.7,61.3
50.3,-38.3,13.600000000000001,54.4
61.0,-29.0,29.55,70.45
54.5,-38.5,8.350000000000001,51.65
66.55,-30.549999999999997,14.5,61.5
70.25,-30.25,4.75,55.25
59.2,-43.2,11.95,64.05
66.7,-34.7,14.149999999999999,65.85
54.85,-42.85,23.15,72.85
50.25,-42.25,18.55,65.45
61.55,-25.549999999999997,25.75,70.25
61.55,-21.549999999999997,22.2,65.8
44.85,-36.85,17.9,62.1
43.35,-39.35,19.0,65.0
46.5,-38.5,21.95,70.05
45.4,-41.4,11.350000000000001,60.65
53.45,-33.45,15.75,64.25
48.3,-36.3,9.100000000000001,54.9
50.5,-30.5,9.25,50.75
48.7,-28.700000000000003,15.100000000000001,52.9
43.7,-31.700000000000003,27.9,64.1
49.75,-25.75,11.2,48.8
40.45,-36.45,25.0,67.0
47.2,-31.200000000000003,6.0,54.0
53.15,-25.15,17.1,70.9
42.15,-34.15,11.100000000000001,68.9
46.3,-26.299999999999997,6.550000000000001,65.45
50.1,-18.1,16.95,75.05
44.2,-20.200000000000003,22.2,77.8
45.1,-17.1,23.55,76.45
43.0,-19.0,10.8,61.2
35.8,-27.8,13.7,62.3
37.6,-29.6,12.0,60.0
45.85,-25.85,21.7,70.3
54.15,-22.15,25.0,75.0
51.7,-27.700000000000003,4.0,56.0
46.1,-34.1,13.05,66.95
49.35,-29.35,16.55,71.45
43.6,-31.6,16.9,71.1
53.85,-17.85,21.85,74.15
50.85,-18.85,11.149999999999999,60.85
39.2,-31.200000000000003,24.45,71.55
44.55,-28.549999999999997,23.2,68.8
48.65,-28.65,21.25,66.75
46.55,-34.55,20.55,67.45
45.65,-37.65,21.55,70.45
59.45,-23.450000000000003,14.649999999999999,65.35
56.15,-24.15,14.25,65.75
56.15,-20.15,20.5,71.5
40.25,-32.25,5.0,55.0
39.25,-31.25,7.350000000000001,56.65
43.7,-27.700000000000003,7.100000000000001,56.9
41.5,-33.5,14.399999999999999,65.6
58.25,-22.25,21.5,74.5
49.2,-37.2,8.899999999999999,63.1
59.4,-31.4,9.05,62.95
62.45,-30.450000000000003,6.100000000000001,57.9
64.15,-28.15,17.9,66.1
59.25,-31.25,13.7,58.3
58.95,-30.950000000000003,24.45,67.55
62.6,-30.6,21.25,66.75
57.15,-45.15,23.5,76.5
70.7,-46.7,7.75,72.25
74.15,-62.150000000000006,4.799999999999997,83.2
85.95,-69.95,-3.549999999999997,87.55
91.8,-79.8,-14.149999999999999,86.15
111.0,-71.0,-18.4,86.4
101.15,-85.15,-2.3500000000000014,102.35
96.9,-88.9,-16.9,84.9
94.75,-86.75,-6.850000000000001,90.85
102.4,-74.4,-1.2999999999999972,93.3
104.4,-68.4,-12.649999999999999,80.65
90.75,-78.75,-9.049999999999997,85.05
99.75,-67.75,-18.4,78.4
96.95,-68.95,-13.700000000000003,85.7
97.85,-65.85,-16.35,84.35
84.8,-76.8,-5.799999999999997,93.8
92.0,-68.0,-2.25,94.25
89.85,-69.85,3.6000000000000014,96.4
82.3,-78.3,-13.5,77.5
95.45,-67.45,-10.149999999999999,82.15
88.7,-76.7,-14.049999999999997,82.05
101.45,-65.45,-16.85,84.85
92.25,-76.25,-7.350000000000001,99.35
95.0,-75.0,-18.549999999999997,90.55
101.55,-69.55,-23.6,83.6
98.25,-74.25,-1.0,101.0
90.7,-82.7,-15.799999999999997,79.8
94.55,-78.55,-9.25,81.25
101.8,-69.8,-0.3999999999999986,88.4
90.55,-78.55,2.3999999999999986,93.6
89.45,-77.45,1.75,98.25
92.5,-72.5,-18.950000000000003,82.95
90.0,-74.0,-14.799999999999997,90.8
98.1,-66.1,-11.100000000000001,95.1
84.9,-80.9,-10.25,94.25
96.55,-72.55,-20.65,80.65
90.45,-82.45,-11.600000000000001,87.6
106.9,-70.9,-5.299999999999997,93.3
96.95,-84.95,-9.850000000000001,89.85
95.7,-87.7,-2.8999999999999986,98.9
107.05,-75.05,-21.85,81.85
107.15,-71.15,-14.450000000000003,90.45
98.55,-74.55,-16.549999999999997,88.55
100.45,-68.45,-18.200000000000003,86.2
95.55,-71.55,-11.600000000000001,91.6
90.15,-78.15,-6.850000000000001,94.85
91.35,-79.35,-18.200000000000003,82.2
90.2,-82.2,-9.799999999999997,89.8
102.3,-70.3,-11.700000000000003,87.7
89.3,-81.3,-7.899999999999999,91.9
97.75,-69.75,-20.35,80.35
90.5,-74.5,-21.049999999999997,81.05
96.05,-68.05,-21.799999999999997,81.8
90.45,-74.45,-6.600000000000001,98.6
97.75,-69.75,-3.299999999999997,103.3
92.45,-76.45,-7.549999999999997,99.55
102.65,-66.65,-7.850000000000001,99.85
86.25,-82.25,-9.899999999999999,97.9
97.9,-69.9,-7.75,99.75
100.1,-68.1,-7.350000000000001,99.35
93.3,-77.3,-10.799999999999997,94.8
104.8,-68.8,-8.0,96.0
99.9,-75.9,-13.049999999999997,89.05
93.95,-81.95,-8.049999999999997,92.05
98.85,-74.85,-17.1,81.1
103.05,-67.05,-13.950000000000003,81.95
87.75,-79.75,-4.899999999999999,88.9
87.85,-79.85,-12.100000000000001,80.1
97.4,-73.4,-9.799999999999997,81.8
90.1,-86.1,-4.200000000000003,88.2
95.2,-87.2,-15.350000000000001,79.35
103.7,-83.7,-13.149999999999999,85.15
97.55,-93.55,-19.049999999999997,83.05
111.9,-79.9,-6.5,98.5
103.0,-87.0,-19.15,87.15
111.35,-75.35,-12.950000000000003,92.95
110.8,-70.8,-14.200000000000003,90.2
102.0,-74.0,-15.299999999999997,87.3
99.25,-71.25,-4.299999999999997,96.3
91.05,-75.05,-1.6000000000000014,97.6
102.0,-62.0,-18.950000000000003,78.95
94.25,-70.25,-10.549999999999997,86.55
93.85,-73.85,-4.5,92.5
92.1,-80.1,-18.85,78.85
106.2,-70.2,-15.399999999999999,83.4
91.45,-87.45,0.25,99.75
105.3,-73.3,-7.649999999999999,91.65
100.9,-76.9,1.0,99.0
102.4,-74.4,-12.149999999999999,84.15
106.15,-70.15,-5.350000000000001,89.35
96.5,-80.5,-12.899999999999999,80.9
108.4,-68.4,-14.799999999999997,78.8
95.9,-79.9,2.8999999999999986,97.1
96.4,-76.4,-15.600000000000001,79.6
88.4,-80.4,-10.200000000000003,86.2
86.3,-78.3,-0.8999999999999986,96.9
84.9,-76.9,-19.65,79.65
88.7,-72.7,-2.1000000000000014,98.1
83.8,-79.8,-14.200000000000003,86.2
89.45,-77.45,-13.950000000000003,85.95
103.55,-67.55,-9.299999999999997,89.3
91.45,-83.45,-2.6499999999999986,94.65
104.05,-72.05,-8.649999999999999,88.65
107.4,-67.4,-13.25,85.25
97.35,-73.35,-20.35,80.35
84.75,-80.75,-17.6,85.6
92.4,-68.4,-12.350000000000001,92.35
95.25,-63.25,-13.950000000000003,89.95
83.05,-75.05,-16.200000000000003,84.2
81.95,-77.95,-1.4500000000000028,93.45
101.35,-61.349999999999994,-8.5,80.5
102.75,-62.75,5.75,90.25
95.95,-71.95,8.549999999999997,91.45
102.95,-66.95,5.549999999999997,90.45
95.9,-75.9,-2.799999999999997,86.8
106.3,-66.3,-4.0,92.0
102.4,-70.4,-2.75,98.75
89.6,-81.6,-10.149999999999999,94.15
91.95,-75.95,-2.049999999999997,102.05
91.7,-71.7,-0.45000000000000284,100.45
95.65,-63.650000000000006,-16.450000000000003,80.45
87.7,-67.7,-1.0499999999999972,93.05
82.7,-70.7,3.25,96.75
96.65,-56.650000000000006,-13.799999999999997,81.8
83.25,-71.25,-5.850000000000001,93.85
81.85,-73.85,-12.049999999999997,92.05
90.8,-66.8,-19.6,87.6
89.2,-69.2,-15.950000000000003,91.95
85.3,-73.3,-23.5,83.5
83.1,-75.1,-10.399999999999999,94.4
82.3,-74.3,-1.3500000000000014,101.35
89.15,-65.15,-8.899999999999999,92.9
93.5,-57.5,-7.200000000000003,95.2
93.55,-53.55,-19.9,83.9
79.4,-63.400000000000006,-4.799999999999997,100.8
77.7,-61.7,-19.700000000000003,87.7
76.6,-60.599999999999994,-10.049999999999997,98.05
86.45,-50.45,-8.200000000000003,100.2
74.95,-62.95,-16.299999999999997,92.3
77.95,-61.95,-8.350000000000001,100.35
82.8,-58.8,-22.200000000000003,86.2
83.15,-59.150000000000006,-6.049999999999997,102.05
77.65,-65.65,-5.5,101.5
78.0,-66.0,-20.65,84.65
90.2,-54.2,-19.65,83.65
82.45,-62.45,-14.700000000000003,86.7
84.45,-60.45,-20.049999999999997,80.05
83.8,-59.8,-14.100000000000001,86.1
80.8,-60.8,-4.649999999999999,96.65
77.2,-61.2,-13.549999999999997,89.55
73.6,-61.599999999999994,-11.950000000000003,91.95
78.4,-54.400000000000006,-20.049999999999997,84.05
77.6,-53.599999999999994,-7.549999999999997,95.55
85.4,-45.400000000000006,-21.1,81.1
77.65,-53.650000000000006,-3.049999999999997,99.05
81.8,-49.8,-15.450000000000003,87.45
83.6,-47.599999999999994,-2.0,102.0
74.8,-54.8,-18.15,86.15
83.75,-43.75,-21.65,81.65
80.95,-44.95,-6.649999999999999,94.65
69.1,-57.1,-9.450000000000003,89.45
71.7,-55.7,-8.5,88.5
78.6,-50.599999999999994,-2.1000000000000014,94.1
72.8,-56.8,-6.149999999999999,90.15
79.95,-47.95,-10.450000000000003,86.45
72.25,-52.25,-16.75,80.75
72.35,-48.35,-2.950000000000003,94.95
73.2,-45.2,-7.149999999999999,91.15
67.3,-51.3,-17.4,81.4
64.7,-56.7,0.6499999999999986,99.35
66.9,-58.9,-0.9500000000000028,96.95
82.8,-46.8,-7.649999999999999,87.65
75.85,-55.849999999999994,4.0,96.0
81.6,-49.599999999999994,-12.200000000000003,76.2
66.65,-62.650000000000006,-2.950000000000003,82.95
81.45,-45.45,-12.299999999999997,72.3
64.6,-60.6,-2.1499999999999986,82.15
66.55,-58.55,3.8500000000000014,88.15
67.1,-59.1,4.299999999999997,87.7
77.85,-49.85,-4.850000000000001,76.85
80.35,-48.349999999999994,8.200000000000003,87.8
78.05,-50.05,4.75,83.25
66.85,-58.85,6.5,85.5
77.6,-45.6,-0.3999999999999986,80.4
66.35,-54.35,2.200000000000003,85.8
61.65,-57.65,-4.75,80.75
69.95,-49.95,7.200000000000003,92.8
80.65,-40.65,-7.850000000000001,75.85
77.7,-45.7,3.799999999999997,84.2
72.35,-52.35,3.3500000000000014,80.65
71.75,-51.75,10.350000000000001,85.65
71.9,-47.9,-3.950000000000003,71.95
62.8,-50.8,10.899999999999999,89.1
55.75,-51.75,-7.049999999999997,75.05
67.25,-35.25,7.049999999999997,92.95
54.6,-46.6,-2.200000000000003,86.2
63.95,-39.95,-4.700000000000003,84.7
70.85,-38.85,-10.100000000000001,78.1
72.25,-44.25,-2.950000000000003,82.95
65.2,-57.2,4.299999999999997,87.7
80.9,-44.9,6.75,89.25
75.15,-51.15,-9.850000000000001,73.85
81.85,-41.85,-3.5,83.5
75.65,-43.65,-13.5,77.5
73.3,-41.3,-17.0,77.0
63.55,-47.55,-15.649999999999999,79.65
66.45,-42.45,-1.1000000000000014,93.1
62.45,-46.45,-7.700000000000003,83.7
72.85,-36.85,2.299999999999997,89.7
63.6,-47.6,-1.6499999999999986,81.65
58.4,-54.4,-8.450000000000003,72.45
71.1,-43.1,9.600000000000001,90.4
67.9,-47.9,-5.799999999999997,77.8
60.2,-56.2,-12.5,76.5
77.85,-37.85,2.6000000000000014,97.4
64.4,-48.4,-20.0,80.0
68.05,-40.05,-11.25,91.25
69.2,-33.2,-6.850000000000001,94.85
67.25,-31.25,-5.0,93.0
54.7,-42.7,-2.549999999999997,90.55
57.95,-41.95,-10.350000000000001,78.35
66.4,-38.4,3.049999999999997,88.95
60.9,-48.9,-6.649999999999999,78.65
64.4,-48.4,3.049999999999997,88.95
64.2,-48.2,-3.6000000000000014,83.6
60.5,-48.5,-6.25,82.25
66.4,-38.4,3.200000000000003,92.8
70.85,-30.85,-9.100000000000001,81.1
58.65,-42.65,-11.350000000000001,79.35
65.85,-37.85,-15.399999999999999,75.4
59.65,-47.65,-5.25,85.25
65.4,-45.4,5.350000000000001,94.65
62.55,-50.55,4.25,91.75
68.8,-44.8,7.5,92.5
76.75,-36.75,-9.649999999999999,73.65
66.85,-46.85,-3.299999999999997,79.3
65.45,-49.45,4.549999999999997,87.45
66.3,-50.3,5.799999999999997,90.2
67.15,-51.15,2.6499999999999986,89.35
69.6,-49.6,-14.25,74.25
61.65,-57.65,-4.850000000000001,84.85
71.45,-47.45,-8.850000000000001,80.85
75.25,-43.25,-14.399999999999999,74.4
69.35,-49.35,4.350000000000001,91.65
77.75,-41.75,7.100000000000001,92.9
70.55,-50.55,1.3500000000000014,86.65
81.2,-41.2,-12.950000000000003,72.95
65.8,-57.8,-7.700000000000003,79.7
73.85,-49.85,-6.450000000000003,82.45
63.05,-59.05,1.2000000000000028,90.8
69.05,-49.05,6.25,93.75
75.45,-35.45,1.25,82.75
54.45,-46.45,-1.9500000000000028,69.95
64.55,-24.549999999999997,-0.10000000000000142,60.1
52.95,-24.950000000000003,23.55,72.45
36.75,-32.75,19.35,60.65
40.55,-24.549999999999997,24.4,63.6
44.05,-20.049999999999997,20.85,63.15
40.75,-24.75,7.800000000000001,56.2
47.9,-19.9,15.0,69.0
46.95,-22.950000000000003,3.3999999999999986,60.6
55.8,-15.799999999999997,3.9499999999999993,60.05
40.6,-32.6,19.9,72.1
43.5,-31.5,14.2,61.8
46.45,-30.450000000000003,19.85,64.15
49.3,-29.299999999999997,22.2,65.8
49.95,-29.950000000000003,27.4,72.6
52.25,-28.25,18.1,65.9
56.25,-24.25,20.9,71.1
48.0,-32.0,4.100000000000001,55.9
53.45,-25.450000000000003,5.300000000000001,58.7
53.3,-25.299999999999997,12.5,67.5
41.5,-37.5,17.25,74.75
54.35,-26.35,9.850000000000001,70.15
53.65,-29.65,0.5,63.5
58.9,-26.9,7.899999999999999,72.1
55.8,-31.799999999999997,18.3,81.7
47.95,-39.95,11.649999999999999,72.35
59.15,-27.15,13.399999999999999,70.6
55.55,-27.549999999999997,22.9,77.1
41.7,-37.7,21.75,74.25
57.45,-17.450000000000003,9.55,62.45
47.4,-23.4,20.75,75.25
41.7,-25.700000000000003,11.850000000000001,68.15
46.6,-18.6,5.300000000000001,62.7
46.15,-18.15,3.1999999999999993,60.8
38.45,-26.450000000000003,3.1499999999999986,60.85
35.6,-31.6,2.8000000000000007,61.2
41.2,-29.200000000000003,7.850000000000001,68.15
40.95,-32.95,6.5,69.5
48.0,-28.0,9.5,74.5
55.9,-19.9,15.25,80.75
46.45,-26.450000000000003,18.0,82.0
52.35,-16.35,9.3,70.7
36.25,-28.25,14.25,73.75
51.0,-11.0,8.2,67.8
41.05,-21.05,0.9499999999999993,63.05
38.5,-26.5,5.100000000000001,70.9
54.55,-14.549999999999997,5.799999999999997,74.2
40.15,-32.15,9.649999999999999,78.35
44.55,-28.549999999999997,5.200000000000003,70.8
55.8,-15.799999999999997,7.899999999999999,68.1
52.4,-16.4,6.800000000000001,61.2
47.4,-19.4,16.9,67.1
51.45,-15.450000000000003,15.8,64.2
40.5,-28.5,13.55,62.45
49.8,-21.799999999999997,22.65,73.35
50.3,-22.299999999999997,21.75,74.25
43.1,-27.1,19.5,72.5
42.25,-22.25,5.75,58.25
44.85,-12.850000000000001,4.350000000000001,55.65
27.85,-23.85,10.899999999999999,61.1
42.45,-6.449999999999999,5.050000000000001,54.95
43.0,-7.0,20.75,71.25
38.9,-14.899999999999999,10.2,61.8
41.0,-17.0,9.55,62.45
50.1,-10.100000000000001,16.95,71.05
39.3,-19.3,2.6000000000000014,57.4
32.5,-20.5,2.3000000000000007,57.7
28.55,-16.55,10.05,65.95
21.1,-17.1,19.85,76.15
23.45,-11.45,17.8,74.2
36.2,-0.1999999999999993,6.050000000000001,61.95
39.05,-3.0500000000000007,12.5,67.5
30.7,-18.7,11.2,64.8
35.8,-19.8,23.9,76.1
45.25,-13.25,18.55,69.45
36.8,-20.8,22.9,73.1
34.85,-18.85,8.899999999999999,59.1
28.1,-20.1,6.600000000000001,57.4
37.65,-5.649999999999999,14.45,65.55
26.15,-14.149999999999999,22.55,73.45
27.95,-11.95,9.2,58.8
32.95,-8.95,16.15,63.85
24.8,-20.8,8.8,55.2
42.65,-6.649999999999999,9.0,55.0
30.0,-22.0,20.6,67.4
42.3,-10.3,13.7,62.3
45.75,-5.75,18.8,69.2
42.75,-6.75,20.35,71.65
40.2,-8.2,4.449999999999999,55.55
30.5,-18.5,18.8,69.2
36.05,-16.05,15.100000000000001,64.9
38.6,-18.6,17.1,66.9
47.45,-15.45,6.600000000000001,57.4
43.75,-23.75,7.75,60.25
55.2,-15.200000000000003,12.7,67.3
49.25,-21.25,7.899999999999999,64.1
38.05,-30.049999999999997,3.3500000000000014,60.65
52.2,-12.200000000000003,17.5,74.5
50.35,-10.350000000000001,4.149999999999999,59.85
43.3,-15.3,3.1999999999999993,56.8
49.35,-9.350000000000001,22.45,73.55
42.25,-18.25,7.25,56.75
45.65,-17.65,9.45,58.55
44.95,-20.950000000000003,15.100000000000001,64.9
45.85,-21.85,14.5,65.5
48.4,-20.4,18.2,69.8
42.85,-26.85,12.3,63.7
47.3,-23.299999999999997,6.550000000000001,57.45
47.65,-23.65,24.45,75.55
39.5,-31.5,15.55,68.45
44.65,-24.65,21.85,78.15
51.15,-15.149999999999999,3.8999999999999986,64.1
37.45,-25.45,6.850000000000001,69.15
32.2,-28.2,17.3,78.7
47.95,-11.95,19.3,76.7
46.8,-14.8,22.15,73.85
44.45,-20.450000000000003,24.65,71.35
42.25,-26.25,11.850000000000001,56.15
55.35,-15.350000000000001,13.649999999999999,58.35
37.5,-33.5,20.5,67.5
46.85,-22.85,7.399999999999999,56.6
37.65,-29.65,7.050000000000001,56.95
34.5,-30.5,11.55,60.45
35.35,-27.35,16.65,63.35
38.35,-22.35,19.9,64.1
35.15,-23.15,12.850000000000001,55.15
33.55,-21.55,23.55,64.45
29.75,-21.75,28.05,67.95
40.25,-8.25,22.6,61.4
33.65,-13.649999999999999,27.05,64.95
30.3,-18.3,23.2,60.8
42.2,-10.2,14.850000000000001,53.15
40.85,-16.85,14.2,53.8
39.4,-23.4,29.35,70.65
47.05,-19.049999999999997,16.7,59.3
41.25,-25.25,28.7,71.3
37.9,-25.9,9.149999999999999,50.85
35.45,-23.45,18.0,58.0
28.4,-24.4,23.05,60.95
43.5,-3.5,13.850000000000001,50.15
39.45,-3.4499999999999993,24.25,59.75
38.75,-2.75,28.0,64.0
39.3,-3.3000000000000007,15.100000000000001,52.9
29.05,-17.05,23.9,64.1
29.2,-21.2,24.75,67.25
45.1,-9.100000000000001,8.25,51.75
48.15,-8.149999999999999,14.5,57.5
38.2,-18.2,21.35,62.65
45.45,-9.45,26.4,65.6
38.45,-14.45,19.25,56.75
35.65,-15.649999999999999,21.65,58.35
29.2,-21.2,25.75,62.25
30.95,-18.95,25.65,62.35
38.65,-10.649999999999999,25.4,62.6
38.0,-10.0,31.0,69.0
28.9,-16.9,30.55,69.45
29.5,-13.5,22.05,61.95
32.0,-8.0,19.85,60.15
34.55,-2.5500000000000007,27.95,68.05
33.2,-1.1999999999999993,14.5,53.5
20.0,-12.0,21.4,58.6
21.25,-9.25,30.05,65.95
33.35,2.6500000000000004,32.3,67.7
28.5,-4.5,25.95,62.05
22.45,-14.45,19.25,56.75
32.4,-8.399999999999999,14.55,53.45
25.55,-17.55,26.15,65.85
27.2,-15.2,28.15,67.85
25.45,-13.45,24.5,63.5
19.0,-15.0,21.0,59.0
31.15,0.8499999999999996,31.4,68.6
22.7,-6.699999999999999,29.75,66.25
34.0,2.0,31.9,68.1
20.3,-16.3,27.9,64.1
24.5,-16.5,15.649999999999999,52.35
33.5,-9.5,25.15,62.85
22.8,-18.8,30.5,69.5
22.8,-14.8,22.15,61.85
26.35,-6.350000000000001,30.35,69.65
24.45,-4.449999999999999,25.0,63.0
23.75,-3.75,17.95,54.05
28.45,-0.4499999999999993,26.6,61.4
34.1,1.8999999999999986,24.7,59.3
32.15,-4.149999999999999,26.25,61.75
28.05,-12.05,23.55,60.45
37.3,-5.300000000000001,10.850000000000001,49.15
25.65,-17.65,30.55,69.45
41.1,-1.1000000000000014,18.55,57.45
23.8,-15.8,22.7,61.3
22.3,-14.3,16.6,55.4
33.1,-1.1000000000000014,18.1,57.9
34.7,1.3000000000000007,11.3,52.7
27.2,-7.199999999999999,18.55,61.45
20.2,-16.2,18.3,61.7
39.3,0.6999999999999993,18.65,61.35
35.9,-3.8999999999999986,21.65,62.35
23.75,-15.75,24.9,63.1
28.85,-8.850000000000001,15.95,52.05
31.55,-3.5500000000000007,20.6,55.4
26.25,-6.25,26.65,61.35
29.5,-1.5,18.35,53.65
35.55,4.449999999999999,29.9,66.1
20.3,-12.3,17.5,54.5
37.4,2.6000000000000014,13.2,50.8
38.05,1.9499999999999993,25.0,63.0
33.95,-1.9499999999999993,12.75,51.25
24.95,-8.95,14.45,53.55
27.6,-3.5999999999999996,22.0,62.0
22.5,-6.5,13.399999999999999,54.6
32.45,3.5500000000000007,10.8,53.2
31.55,0.4499999999999993,20.2,63.8
27.35,-7.350000000000001,9.850000000000001,54.15
29.3,-9.3,25.8,70.2
22.7,-18.7,23.95,68.05
25.15,-17.15,12.05,55.95
22.7,-18.7,14.05,57.95
27.7,-11.7,11.7,56.3
28.55,-8.55,19.2,64.8
35.8,0.1999999999999993,10.850000000000001,57.15
37.65,2.3500000000000014,16.95,63.05
34.25,-2.25,27.5,72.5
35.4,-3.3999999999999986,10.5,53.5
29.0,-13.0,29.75,70.25
24.7,-20.7,28.9,67.1
30.2,-18.2,19.85,56.15
37.4,-13.399999999999999,16.45,51.55
42.25,-10.25,24.7,59.3
32.95,-20.95,24.65,59.35
29.4,-25.4,26.3,61.7
45.55,-9.55,13.8,50.2
35.15,-19.15,11.100000000000001,48.9
44.3,-8.3,30.25,69.75
40.95,-8.95,25.2,66.8
29.9,-17.9,13.899999999999999,58.1
37.6,-9.600000000000001,18.65,65.35
42.4,-6.399999999999999,7.800000000000001,56.2
30.25,-22.25,23.75,72.25
42.35,-14.350000000000001,26.65,73.35
33.65,-25.65,20.4,63.6
41.75,-17.75,14.2,53.8
44.5,-12.5,17.3,54.7
30.45,-22.45,11.350000000000001,48.65
38.75,-10.75,20.45,59.55
31.95,-15.95,26.95,69.05
38.7,-10.7,23.55,68.45
40.45,-12.45,14.55,61.45
40.65,-16.65,26.05,73.95
44.6,-16.6,11.75,60.25
35.6,-27.6,13.600000000000001,62.4
39.55,-23.55,21.7,70.3
50.75,-10.75,16.25,63.75
35.4,-23.4,9.5,54.5
34.15,-22.15,21.25,62.75
29.6,-25.6,20.9,59.1
36.0,-20.0,25.85,62.15
47.25,-11.25,25.7,62.3
38.95,-22.95,16.5,55.5
52.3,-12.299999999999997,16.85,59.15
38.6,-26.6,9.600000000000001,54.4
37.45,-25.45,23.25,68.75
31.3,-27.3,16.05,59.95
45.15,-9.149999999999999,9.649999999999999,50.35
44.05,-8.05,11.149999999999999,48.85
38.85,-14.850000000000001,31.95,68.05
49.6,-9.600000000000001,29.95,66.05
53.0,-13.0,17.1,54.9
41.9,-29.9,16.05,55.95
40.95,-32.95,21.1,62.9
50.2,-22.200000000000003,20.6,63.4
36.55,-32.55,18.45,61.55
39.85,-27.85,28.65,71.35
49.9,-21.9,8.850000000000001,51.15
44.2,-40.2,28.85,71.15
59.25,-47.25,22.4,65.6
71.0,-67.0,27.25,72.75
101.25,-77.25,11.649999999999999,60.35
115.1,-111.1,5.850000000000001,58.15
146.35,-134.35,10.7,65.3
172.45,-168.45,20.7,75.3
219.8,-187.8,16.15,67.85
260.2,-220.2,16.5,63.5
292.85,-264.85,10.850000000000001,53.15
324.55,-308.55,16.3,55.7
353.95,-345.95,30.6,69.4
390.8,-362.8,26.0,66.0
396.3,-392.3,9.2,50.8
406.65,-398.65,8.75,51.25
422.65,-382.65,17.15,58.85
407.75,-383.75,18.25,57.75
406.0,-366.0,19.45,56.55
379.9,-367.9,18.35,53.65
367.8,-355.8,26.5,61.5
362.85,-338.85,26.05,61.95
343.55,-335.55,15.149999999999999,52.85
345.75,-309.75,22.3,61.7
330.2,-298.2,17.8,58.2
313.75,-285.75,15.7,56.3
301.1,-265.1,29.85,70.15
275.3,-259.3,27.95,68.05
265.65,-237.65,18.0,58.0
254.05,-222.05,12.0,52.0
237.9,-213.9,20.15,59.85
234.7,-198.7,14.25,53.75
222.15,-194.15,10.3,49.7
202.7,-198.7,10.0,50.0
201.2,-185.2,25.45,66.55
189.55,-181.55,10.95,53.05
181.05,-177.05,18.9,61.1
187.65,-159.65,19.55,60.45
179.9,-159.9,12.899999999999999,51.1
177.1,-157.1,18.65,53.35
170.55,-158.55,34.2,65.8
172.85,-148.85,15.2,44.8
170.35,-142.35,23.35,52.65
157.0,-145.0,30.75,61.25
149.6,-141.6,25.9,58.1
153.2,-129.2,19.25,52.75
149.8,-125.80000000000001,29.35,62.65
137.6,-133.6,26.35,57.65
151.85,-115.85,33.8,62.2
146.05,-118.05000000000001,35.2,60.8
147.85,-111.85,18.0,42.0
135.4,-119.4,35.9,60.1
126.7,-122.7,33.25,58.75
130.15,-114.15,30.55,57.45
130.25,-110.25,18.3,45.7
128.0,-108.0,34.7,61.3
120.45,-112.45,25.55,50.45
124.8,-104.8,18.6,41.4
128.9,-96.9,23.4,44.6
112.2,-108.2,32.0,52.0
117.3,-97.3,22.45,41.55
122.4,-86.4,22.8,41.2
105.95,-97.95,20.95,39.05
109.0,-93.0,30.55,49.45
103.0,-99.0,27.35,48.65
103.4,-99.4,33.4,58.6
114.95,-86.95,33.1,62.9
107.3,-91.3,13.149999999999999,46.85
104.05,-88.05,28.25,63.75
106.3,-78.3,18.55,53.45
90.75,-86.75,29.7,62.3
94.65,-78.65,15.0,45.0
100.0,-72.0,25.7,54.3
98.15,-74.15,25.6,54.4
99.95,-71.95,30.7,61.3
97.05,-73.05,21.5,54.5
103.15,-63.150000000000006,20.2,55.8
98.5,-62.5,17.25,54.75
93.7,-61.7,14.649999999999999,53.35
85.7,-65.7,28.45,67.55
86.55,-62.55,12.600000000000001,51.4
89.85,-57.849999999999994,29.1,66.9
79.75,-67.75,12.0,48.0
89.4,-57.400000000000006,15.0,49.0
74.75,-70.75,21.9,54.1
73.9,-69.9,22.35,53.65
90.95,-50.95,30.35,61.65
86.35,-54.349999999999994,27.95,60.05
89.95,-49.95,25.25,58.75
79.65,-59.650000000000006,24.5,59.5
73.3,-65.3,13.899999999999999,50.1
79.85,-55.849999999999994,25.5,62.5
83.5,-47.5,25.3,62.7
64.05,-60.05,13.149999999999999,50.85
78.45,-38.45,14.850000000000001,53.15
59.75,-51.75,20.6,59.4
68.5,-40.5,20.45,59.55
72.9,-36.9,10.600000000000001,49.4
58.8,-54.8,21.25,58.75
60.75,-56.75,14.2,49.8
69.85,-49.85,27.15,60.85
71.85,-47.85,15.75,48.25
66.4,-50.4,27.75,60.25
74.0,-38.0,25.2,58.8
55.0,-51.0,16.65,51.35
66.3,-34.3,30.4,65.6
52.1,-44.1,28.55,63.45
63.05,-31.049999999999997,16.85,51.15
50.95,-42.95,18.9,53.1
65.4,-29.4,32.5,67.5
68.25,-28.25,15.850000000000001,52.15
60.7,-36.7,15.399999999999999,52.6
56.8,-40.8,31.85,68.15
58.6,-38.6,15.3,48.7
68.6,-28.6,29.55,58.45
67.0,-31.0,29.8,54.2
61.65,-37.65,27.15,48.85
61.9,-37.9,27.3,48.7
60.8,-36.8,18.2,41.8
60.05,-32.05,16.4,43.6
51.7,-31.700000000000003,18.55,49.45
55.0,-19.0,27.15,60.85
49.05,-17.049999999999997,24.55,59.45
42.75,-18.75,16.6,51.4
34.15,-26.15,14.95,49.05
48.55,-12.55,27.4,60.6
45.15,-17.15,15.8,48.2
49.35,-13.350000000000001,16.1,47.9
50.85,-10.850000000000001,28.45,59.55
42.0,-18.0,21.0,51.0
30.95,-26.95,21.8,50.2
29.9,-25.9,26.7,53.3
44.9,-8.899999999999999,29.55,54.45
41.85,-9.850000000000001,33.85,58.15
28.7,-20.7,23.25,48.75
35.6,-11.600000000000001,19.8,48.2
26.55,-18.55,19.7,52.3
41.6,-1.6000000000000014,31.55,68.45
30.75,-10.75,23.95,64.05
26.15,-14.149999999999999,13.399999999999999,54.6
33.9,-5.899999999999999,21.9,62.1
31.95,-7.949999999999999,19.2,56.8
30.45,-10.45,20.4,55.6
29.0,-13.0,20.9,55.1
31.45,-11.45,30.65,65.35
39.75,-3.75,25.9,62.1
30.0,-14.0,13.399999999999999,50.6
42.2,-2.1999999999999993,27.75,64.25
28.65,-16.65,19.15,52.85
33.25,-13.25,29.15,58.85
39.9,-7.899999999999999,34.9,61.1
44.45,-4.449999999999999,29.55,54.45
26.7,-22.7,34.6,61.4
32.7,-16.7,28.55,59.45
34.6,-14.600000000000001,14.25,49.75
42.5,-6.5,28.95,67.05
26.7,-22.7,13.25,50.75
41.1,-9.100000000000001,24.9,59.1
37.75,-13.75,22.75,53.25
36.45,-16.45,27.8,56.2
45.15,-9.149999999999999,15.2,44.8
39.5,-15.5,31.2,64.8
39.4,-15.399999999999999,22.95,61.05
46.5,-6.5,9.7,50.3
40.75,-8.75,16.1,55.9
32.45,-12.45,16.05,51.95
28.45,-12.45,22.4,53.6
27.5,-11.5,18.05,45.95
34.15,-6.149999999999999,34.05,61.95
34.25,-10.25,30.45,61.55
35.0,-15.0,32.1,67.9
45.35,-9.350000000000001,17.95,58.05
40.4,-16.4,18.8,61.2
43.8,-11.8,11.100000000000001,52.9
32.2,-20.2,20.5,59.5
38.25,-10.25,20.35,55.65
35.15,-11.149999999999999,30.25,61.75
25.1,-21.1,21.7,50.3
38.05,-10.05,16.7,43.3
31.25,-19.25,17.2,42.8
38.1,-14.100000000000001,19.3,44.7
43.95,-7.949999999999999,21.0,47.0
31.3,-19.3,28.45,55.55
44.7,-4.699999999999999,27.9,56.1
28.85,-20.85,15.5,44.5
31.75,-19.75,27.7,56.3
34.95,-18.95,34.35,61.65
29.45,-25.45,37.35,62.65
32.6,-20.6,38.3,61.7
42.75,-6.75,28.75,51.25
28.6,-16.6,38.55,61.45
41.5,-1.5,31.55,56.45
41.9,-1.8999999999999986,28.25,55.75
37.6,-9.600000000000001,17.1,46.9
43.5,-7.5,30.5,61.5
46.4,-6.399999999999999,14.55,45.45
27.75,-23.75,23.05,52.95
38.05,-10.05,27.5,56.5
42.3,-2.3000000000000007,17.35,46.65
27.7,-15.7,28.35,59.65
24.55,-20.55,28.8,63.2
42.75,-6.75,15.350000000000001,52.65
45.35,-9.350000000000001,16.75,55.25
39.4,-19.4,13.25,50.75
38.35,-22.35,32.85,67.15
37.9,-21.9,31.05,60.95
44.7,-12.7,31.0,57.0
45.15,-9.149999999999999,22.1,45.9
29.9,-21.9,38.15,61.85
41.25,-9.25,37.45,62.55
43.35,-7.350000000000001,24.4,51.6
28.35,-24.35,33.45,62.55
44.1,-12.100000000000001,22.8,53.2
46.45,-14.45,22.3,53.7
44.85,-20.85,13.7,46.3
42.7,-26.700000000000003,32.75,67.25
41.35,-29.35,17.7,54.3
48.85,-20.85,24.75,63.25
39.55,-27.549999999999997,24.6,63.4
48.05,-16.049999999999997,15.399999999999999,52.6
34.95,-26.95,27.2,60.8
32.5,-28.5,27.45,56.55
46.25,-14.25,25.45,50.55
41.9,-17.9,30.7,53.3
37.0,-21.0,34.9,57.1
43.9,-11.899999999999999,34.15,57.85
30.8,-22.8,36.95,63.05
28.35,-24.35,15.8,44.2
30.8,-22.8,28.95,59.05
30.25,-26.25,14.15,45.85
36.35,-24.35,21.05,54.95
46.6,-18.6,25.3,62.7
44.55,-24.549999999999997,11.2,52.8
38.1,-34.1,17.4,62.6
41.25,-33.25,18.75,65.25
58.1,-18.1,27.5,72.5
55.0,-23.0,27.45,68.55
45.5,-33.5,31.85,68.15
51.5,-27.5,19.65,52.35
52.5,-24.5,20.35,51.65
52.7,-20.700000000000003,15.75,48.25
54.65,-14.649999999999999,16.3,51.7
42.8,-22.799999999999997,14.649999999999999,53.35
38.1,-26.1,19.5,60.5
48.85,-16.85,13.0,55.0
46.6,-22.6,17.05,58.95
57.1,-17.1,11.600000000000001,52.4
45.55,-33.55,10.3,49.7
43.05,-39.05,27.0,65.0
60.05,-24.049999999999997,29.6,66.4
54.35,-30.35,27.95,64.05
58.5,-26.5,26.05,61.95
58.75,-26.75,19.9,56.1
59.15,-27.15,31.5,68.5
63.65,-23.65,15.05,52.95
62.05,-26.049999999999997,22.65,61.35
52.2,-36.2,22.65,61.35
61.95,-25.950000000000003,13.149999999999999,50.85
51.2,-35.2,12.2,47.8
48.25,-36.25,33.6,66.4
61.0,-21.0,25.0,55.0
45.6,-33.6,28.05,55.95
46.1,-30.1,36.45,63.55
40.9,-32.9,32.2,59.8
52.1,-20.1,35.55,64.45
42.05,-30.049999999999997,22.8,53.2
54.75,-18.75,22.2,53.8
40.05,-36.05,17.95,50.05
51.45,-27.450000000000003,15.95,48.05
42.7,-38.7,28.15,59.85
57.0,-25.0,30.6,61.4
48.9,-32.9,27.35,56.65
58.65,-22.65,34.25,61.75
57.2,-25.200000000000003,30.9,57.1
48.65,-36.65,21.05,46.95
49.0,-41.0,30.55,57.45
57.45,-37.45,21.8,50.2
57.0,-41.0,23.3,52.7
51.3,-47.3,29.5,58.5
50.65,-46.65,16.45,43.55
49.75,-45.75,23.75,48.25
59.4,-35.4,24.65,47.35
60.0,-36.0,38.9,61.1
63.0,-35.0,34.35,57.65
67.7,-31.700000000000003,19.4,44.6
63.55,-35.55,26.6,53.4
60.3,-36.3,26.2,53.8
58.45,-34.45,26.1,53.9
50.8,-38.8,24.0,52.0
47.8,-39.8,29.55,58.45
57.2,-29.200000000000003,28.8,59.2
56.9,-28.9,16.1,47.9
52.2,-32.2,29.75,62.25
49.25,-33.25,34.05,65.95
50.3,-30.299999999999997,22.8,53.2
46.1,-34.1,35.5,64.5
55.25,-27.25,27.7,56.3
61.45,-25.450000000000003,29.25,58.75
48.05,-44.05,14.4,45.6
54.05,-42.05,23.75,56.25
68.8,-28.799999999999997,27.7,60.3
56.35,-40.35,30.45,61.55
53.4,-41.4,25.65,54.35
48.6,-44.6,33.0,59.0
54.55,-38.55,22.15,45.85
58.9,-34.9,20.95,43.05
61.0,-33.0,21.35,42.65
62.35,-30.35,23.2,44.8
50.75,-38.75,28.5,51.5
60.5,-24.5,29.35,54.65
56.35,-24.35,17.9,46.1
54.95,-22.950000000000003,14.7,45.3
42.5,-34.5,32.25,63.75
57.05,-21.049999999999997,18.75,49.25
58.25,-22.25,16.05,43.95
61.35,-21.35,17.7,42.3
54.15,-30.15,27.0,49.0
52.95,-32.95,39.3,60.7
47.8,-39.8,18.55,41.45
51.3,-39.3,35.0,61.0
67.45,-27.450000000000003,29.2,58.8
62.1,-38.1,15.850000000000001,48.15
56.55,-48.55,19.45,52.55
64.45,-44.45,34.0,66.0
71.25,-39.25,19.25,48.75
69.5,-41.5,18.65,45.35
63.5,-47.5,21.7,46.3
70.05,-42.05,33.9,58.1
61.45,-53.45,33.1,58.9
71.35,-47.35,33.25,62.75
81.6,-41.6,12.850000000000001,47.15
64.6,-60.6,18.5,57.5
68.3,-56.3,9.149999999999999,50.85
80.45,-40.45,25.2,66.8
68.0,-48.0,18.6,57.4
64.45,-48.45,28.55,63.45
68.55,-44.55,34.2,65.8
78.75,-38.75,26.8,57.2
70.15,-54.15,18.2,49.8
73.35,-57.349999999999994,25.0,59.0
81.55,-53.55,20.0,56.0
73.6,-61.599999999999994,25.75,62.25
83.4,-47.400000000000006,26.35,61.65
78.05,-46.05,13.45,46.55
78.8,-38.8,34.3,65.7
77.4,-37.4,16.4,47.6
62.2,-54.2,15.55,48.45
67.25,-55.25,22.0,58.0
67.75,-63.75,30.3,69.7
72.2,-68.2,13.100000000000001,54.9
77.25,-69.25,12.75,55.25
75.6,-71.6,10.95,53.05
79.7,-63.7,21.45,62.55
88.45,-48.45,11.899999999999999,52.1
76.85,-52.849999999999994,20.1,59.9
66.75,-58.75,18.2,57.8
76.45,-48.45,20.6,59.4
72.05,-56.05,21.4,58.6
84.75,-48.75,30.35,65.65
85.35,-53.349999999999994,21.0,55.0
82.8,-58.8,27.1,60.9
80.8,-60.8,14.55,49.45
87.4,-51.400000000000006,27.8,64.2
69.65,-65.65,19.3,56.7
76.1,-56.099999999999994,17.45,54.55
81.65,-49.650000000000006,18.35,53.65
74.3,-58.3,31.65,64.35
79.4,-55.400000000000006,24.95,55.05
86.85,-50.849999999999994,29.75,58.25
81.4,-57.400000000000006,21.85,50.15
73.35,-65.35,29.25,58.75
70.75,-66.75,30.3,61.7
78.25,-58.25,23.45,56.55
74.55,-62.55,27.2,60.8
81.75,-57.75,21.65,54.35
73.4,-69.4,32.8,63.2
90.6,-54.599999999999994,36.25,63.75
80.8,-64.8,37.65,62.35
90.05,-54.05,24.6,47.4
74.55,-66.55,24.75,47.25
89.25,-49.25,30.05,53.95
72.65,-64.65,24.7,51.3
76.65,-60.650000000000006,25.15,54.85
70.75,-66.75,30.2,61.8
87.95,-47.95,16.25,47.75
70.55,-62.55,31.35,60.65
78.8,-50.8,27.1,52.9
65.5,-61.5,28.6,51.4
69.85,-57.85,39.0,61.0
78.15,-54.150000000000006,33.8,58.2
80.25,-60.25,23.15,52.85
94.95,-54.95,27.55,64.45
93.9,-65.9,23.6,68.4
93.9,-73.9,12.3,63.7
107.15,-67.15,14.05,69.95
107.65,-71.65,20.95,79.05
101.4,-81.4,1.0,59.0
96.2,-88.2,9.649999999999999,66.35
108.5,-76.5,2.3000000000000007,57.7
98.15,-86.15,8.649999999999999,63.35
93.65,-89.65,14.45,69.55
96.95,-84.95,3.8999999999999986,60.1
108.25,-72.25,3.3000000000000007,60.7
95.4,-83.4,20.95,79.05
104.6,-72.6,7.050000000000001,64.95
97.25,-77.25,17.65,74.35
96.15,-76.15,10.55,65.45
95.3,-75.3,5.350000000000001,58.65
98.85,-70.85,15.600000000000001,68.4
104.75,-64.75,5.050000000000001,58.95
98.85,-70.85,21.85,78.15
88.85,-80.85,16.2,75.8
91.15,-79.15,7.0,69.0
99.3,-71.3,2.5500000000000007,65.45
95.85,-75.85,1.1999999999999993,62.8
102.0,-70.0,2.5500000000000007,61.45
97.7,-73.7,2.0500000000000007,57.95
93.45,-77.45,17.0,71.0
88.85,-80.85,9.0,63.0
92.85,-76.85,13.95,70.05
103.55,-67.55,16.3,75.7
100.7,-72.7,16.65,79.35
93.55,-81.55,13.649999999999999,78.35
99.75,-75.75,-2.450000000000003,62.45
94.75,-78.75,14.55,77.45
87.0,-83.0,20.15,79.85
90.9,-74.9,14.05,69.95
98.9,-62.900000000000006,5.800000000000001,58.2
87.8,-71.8,19.05,68.95
100.0,-60.0,21.65,70.35
93.3,-69.3,11.649999999999999,60.35
91.55,-75.55,17.25,66.75
99.8,-71.8,20.45,71.55
91.7,-83.7,5.550000000000001,58.45
94.75,-82.75,22.7,77.3
107.45,-71.45,14.100000000000001,69.9
103.45,-75.45,13.8,70.2
107.4,-71.4,16.05,71.95
107.2,-71.2,18.95,73.05
105.05,-73.05,24.1,75.9
108.8,-68.8,11.2,60.8
108.85,-68.85,21.9,70.1
96.85,-80.85,9.8,58.2
101.15,-77.15,22.95,73.05
97.4,-81.4,11.7,64.3
103.1,-75.1,22.75,77.25
92.25,-84.25,10.5,65.5
94.9,-78.9,21.45,74.55
95.6,-75.6,23.15,72.85
101.1,-69.1,7.0,53.0
106.3,-66.3,20.5,63.5
98.75,-78.75,13.100000000000001,54.9
112.15,-72.15,26.8,69.2
103.25,-87.25,15.7,60.3
117.15,-77.15,14.25,61.75
117.6,-77.6,4.850000000000001,55.15
108.35,-84.35,15.8,68.2
112.65,-76.65,23.0,77.0
94.9,-90.9,16.45,71.55
94.25,-90.25,20.0,76.0
96.3,-88.3,15.7,72.3
106.8,-78.8,17.75,74.25
103.55,-83.55,4.5,59.5
98.3,-90.3,5.850000000000001,58.15
111.3,-79.3,19.95,68.05
116.85,-76.85,28.05,71.95
116.5,-80.5,25.75,66.25
110.2,-90.2,16.5,55.5
103.95,-99.95,11.899999999999999,52.1
119.1,-87.1,23.95,68.05
121.4,-85.4,17.25,66.75
117.1,-89.1,8.55,63.45
106.15,-98.15,14.850000000000001,73.15
110.35,-90.35,2.8500000000000014,61.15
115.8,-79.8,8.649999999999999,63.35
109.45,-81.45,11.600000000000001,60.4
99.65,-87.65,20.65,63.35
95.2,-91.2,18.4,57.6
100.3,-88.3,28.2,67.8
102.55,-90.55,28.25,71.75
106.7,-90.7,17.25,66.75
111.7,-87.7,16.7,71.3
104.95,-92.95,11.75,68.25
117.4,-77.4,4.600000000000001,59.4
108.15,-84.15,5.050000000000001,54.95
98.25,-94.25,9.649999999999999,54.35
113.8,-81.8,27.05,68.95
106.95,-94.95,14.399999999999999,57.6
121.9,-85.9,11.600000000000001,60.4
109.4,-101.4,11.7,68.3
121.45,-89.45,2.1499999999999986,65.85
117.6,-89.6,10.200000000000003,77.8
111.3,-91.3,-3.799999999999997,63.8
111.25,-87.25,1.8500000000000014,66.15
102.5,-94.5,17.8,78.2
111.3,-87.3,19.3,76.7
112.9,-88.9,3.75,60.25
116.8,-88.8,11.45,68.55
123.75,-83.75,5.0,63.0
119.85,-87.85,13.100000000000001,70.9
119.2,-87.2,15.899999999999999,72.1
103.9,-99.9,21.2,74.8
102.35,-98.35,18.35,69.65
103.85,-95.85,8.899999999999999,59.1
113.8,-85.8,10.600000000000001,61.4
116.2,-84.2,15.600000000000001,68.4
114.3,-86.3,10.45,65.55
104.15,-96.15,5.699999999999999,62.3
111.6,-87.6,19.55,76.45
103.25,-95.25,16.0,72.0
107.6,-91.6,22.65,77.35
108.4,-92.4,15.2,68.8
117.2,-85.2,5.5,58.5
118.5,-82.5,19.75,72.25
104.1,-92.1,10.25,61.75
100.05,-88.05,16.6,67.4
108.0,-72.0,20.6,71.4
101.05,-73.05,19.6,72.4
90.0,-82.0,1.3000000000000007,58.7
92.1,-80.1,14.0,78.0
101.95,-69.95,-1.2999999999999972,69.3
92.05,-76.05,4.75,79.25
85.25,-73.25,6.899999999999999,81.1
86.0,-58.0,13.299999999999997,82.7
69.6,-57.6,14.899999999999999,77.1
62.45,-50.45,4.550000000000001,59.45
66.3,-38.3,22.8,73.2
71.7,-31.700000000000003,25.15,74.85
73.95,-33.95,10.0,62.0
61.35,-53.35,16.45,71.55
75.9,-43.9,13.5,70.5
72.75,-48.75,21.7,78.3
73.65,-45.65,18.8,73.2
77.6,-37.6,22.1,73.9
72.05,-40.05,22.8,73.2
64.05,-48.05,10.600000000000001,61.4
77.5,-37.5,17.6,70.4
75.75,-43.75,18.35,73.65
69.9,-53.9,3.3500000000000014,60.65
79.45,-47.45,20.75,79.25
69.75,-57.75,0.6000000000000014,59.4
80.9,-44.9,12.899999999999999,71.1
66.95,-54.95,19.6,76.4
59.8,-55.8,20.6,75.4
70.05,-38.05,19.95,72.05
58.7,-42.7,11.149999999999999,60.85
58.25,-38.25,18.0,66.0
49.75,-45.75,18.15,65.85
59.0,-39.0,19.55,68.45
65.55,-37.55,20.5,71.5
60.25,-48.25,17.4,70.6
58.5,-54.5,4.800000000000001,59.2
69.35,-45.35,7.050000000000001,60.95
65.35,-49.35,20.4,71.6
67.15,-47.15,8.25,55.75
71.15,-43.15,18.05,61.95
60.05,-56.05,22.95,65.05
77.55,-41.55,28.65,71.35
77.15,-45.15,27.25,72.75
76.1,-48.1,5.449999999999999,54.55
81.9,-41.9,9.75,62.25
80.6,-40.6,20.85,75.15
76.7,-40.7,18.9,73.1
59.4,-55.4,17.6,70.4
61.1,-53.1,20.6,71.4
74.25,-42.25,25.5,74.5
62.1,-58.1,24.0,72.0
72.15,-52.15,16.25,63.75
77.15,-49.15,16.3,63.7
68.6,-56.6,24.5,71.5
69.1,-53.1,21.05,66.95
65.15,-53.15,25.85,70.15
63.95,-51.95,16.45,59.55
76.2,-40.2,26.65,69.35
73.75,-45.75,24.2,67.8
73.95,-49.95,15.25,60.75
72.1,-56.099999999999994,16.3,63.7
85.5,-45.5,11.75,60.25
80.15,-52.150000000000006,8.0,56.0
80.35,-52.349999999999994,21.15,66.85
71.05,-63.05,12.649999999999999,55.35
78.5,-58.5,10.0,50.0
80.6,-60.599999999999994,12.5,51.5
90.9,-54.900000000000006,18.0,58.0
76.75,-72.75,18.55,61.45
91.35,-59.349999999999994,20.85,67.15
90.85,-58.849999999999994,5.649999999999999,54.35
81.25,-65.25,21.6,70.4
85.1,-57.099999999999994,8.95,55.05
72.9,-64.9,11.05,52.95
76.85,-56.849999999999994,17.2,54.8
77.35,-53.349999999999994,30.45,65.55
80.65,-48.650000000000006,16.2,51.8
82.65,-46.650000000000006,28.7,67.3
69.05,-61.05,22.75,65.25
83.8,-47.8,9.05,54.95
84.45,-48.45,22.25,69.75
82.8,-50.8,14.399999999999999,61.6
76.7,-56.7,23.35,68.65
75.6,-55.599999999999994,8.75,51.25
83.8,-43.8,14.100000000000001,53.9
81.0,-41.0,23.05,60.95
70.3,-46.3,13.399999999999999,50.6
64.25,-48.25,29.25,66.75
73.65,-37.65,30.85,69.15
68.3,-44.3,24.7,63.3
70.4,-46.4,23.25,60.75
78.75,-42.75,28.6,63.4
70.95,-54.95,24.6,55.4
70.6,-58.599999999999994,36.45,63.55
67.5,-63.5,17.45,42.55
67.75,-63.75,17.05,42.95
73.45,-57.45,27.5,56.5
70.85,-58.849999999999994,13.350000000000001,46.65
80.15,-48.150000000000006,19.45,56.55
81.8,-45.8,14.350000000000001,53.65
72.05,-56.05,28.25,67.75
77.25,-53.25,28.75,67.25
76.9,-56.900000000000006,11.149999999999999,48.85
78.7,-58.7,10.95,49.05
85.85,-53.849999999999994,28.05,67.95
78.3,-62.3,16.85,59.15
89.75,-49.75,18.05,61.95
70.75,-66.75,10.3,53.7
73.95,-61.95,21.6,62.4
81.65,-53.650000000000006,13.600000000000001,50.4
79.75,-55.75,13.399999999999999,46.6
70.15,-66.15,20.4,51.6
88.5,-48.5,24.35,55.65
76.55,-60.55,33.45,66.55
72.65,-64.65,24.3,59.7
76.7,-60.7,25.35,62.65
79.0,-59.0,18.8,57.2
73.45,-65.45,26.7,65.3
76.0,-64.0,10.850000000000001,49.15
84.5,-56.5,13.0,51.0
81.05,-61.05,12.95,51.05
81.35,-61.349999999999994,20.7,59.3
83.75,-59.75,26.3,65.7
80.0,-64.0,29.9,70.1
83.75,-59.75,17.65,58.35
81.4,-61.400000000000006,25.7,66.3
86.5,-54.5,30.2,69.8
77.2,-61.2,21.1,58.9
73.9,-61.900000000000006,24.15,59.85
76.5,-56.5,33.2,66.8
75.3,-55.3,25.85,58.15
76.65,-52.650000000000006,31.95,64.05
66.75,-62.75,13.5,46.5
71.35,-59.349999999999994,18.65,53.35
86.05,-46.05,19.7,56.3
84.85,-48.849999999999994,24.95,63.05
79.8,-55.8,22.4,61.6
70.6,-66.6,12.25,51.75
87.25,-51.25,10.45,49.55
88.1,-52.099999999999994,24.75,63.25
89.15,-53.150000000000006,15.25,52.75
92.3,-52.3,21.55,58.45
83.75,-63.75,21.55,58.45
91.0,-59.0,21.2,58.8
85.9,-65.9,12.600000000000001,51.4
84.3,-68.3,18.15,57.85
86.1,-66.1,20.1,59.9
91.6,-59.599999999999994,22.65,61.35
92.95,-56.95,11.55,48.45
90.3,-58.3,30.45,65.55
79.15,-67.15,23.1,56.9
91.4,-51.400000000000006,33.5,66.5
85.4,-53.400000000000006,17.8,50.2
71.45,-63.45,14.05,45.95
70.4,-62.400000000000006,14.1,45.9
79.05,-55.05,21.85,54.15
89.35,-49.349999999999994,17.2,50.8
76.65,-68.65,32.2,67.8
93.35,-57.349999999999994,19.15,56.85
96.4,-56.400000000000006,20.5,59.5
77.05,-73.05,24.4,63.6
81.85,-61.849999999999994,29.1,66.9
84.2,-52.2,22.35,57.65
67.5,-63.5,17.75,50.25
84.1,-44.099999999999994,16.8,47.2
75.95,-51.95,18.9,49.1
84.4,-44.400000000000006,19.9,52.1
72.4,-56.400000000000006,20.1,55.9
81.6,-45.6,20.2,59.8
70.3,-54.3,23.0,65.0
63.05,-59.05,21.1,62.9
80.7,-40.7,20.45,59.55
79.65,-43.65,28.4,63.6
79.7,-47.7,34.0,66.0
82.6,-50.599999999999994,32.55,63.45
78.95,-58.95,13.55,46.45
74.55,-66.55,13.05,50.95
72.8,-68.8,27.95,72.05
81.4,-57.400000000000006,19.15,68.85
82.85,-50.849999999999994,11.7,64.3
65.95,-61.95,20.15,71.85
71.8,-51.8,14.45,61.55
67.15,-55.15,29.75,70.25
64.25,-60.25,30.85,65.15
66.05,-62.05,24.75,55.25
73.7,-57.7,34.85,65.15
84.0,-48.0,19.2,52.8
84.5,-44.5,16.65,55.35
81.55,-41.55,12.05,55.95
66.55,-50.55,6.25,53.75
60.75,-52.75,21.7,70.3
76.4,-36.4,20.35,67.65
71.65,-43.65,9.8,54.2
70.0,-50.0,17.35,58.65
66.7,-58.7,20.5,59.5
83.05,-47.05,10.95,49.05
84.35,-48.349999999999994,30.85,69.15
68.8,-64.8,24.45,63.55
74.25,-58.25,27.9,68.1
75.45,-55.45,23.35,64.65
66.95,-62.95,18.6,61.4
68.55,-60.55,7.949999999999999,52.05
81.0,-49.0,15.649999999999999,60.35
85.4,-45.400000000000006,15.95,60.05
79.7,-51.7,20.95,63.05
79.3,-51.3,16.4,55.6
84.3,-44.3,17.75,54.25
69.15,-57.15,16.7,51.3
75.9,-47.9,13.05,46.95
69.5,-53.5,16.95,51.05
77.95,-45.95,27.1,60.9
70.75,-54.75,23.75,56.25
83.55,-43.55,24.85,55.15
83.7,-43.7,35.85,64.15
81.35,-45.35,32.2,59.8
70.6,-54.6,25.45,54.55
65.95,-57.95,32.05,63.95
69.85,-53.85,14.55,49.45
66.35,-58.35,25.7,62.3
73.15,-53.15,29.8,66.2
73.9,-53.9,12.600000000000001,47.4
80.4,-48.400000000000006,13.45,46.55
74.75,-54.75,31.9,64.1
77.15,-53.150000000000006,13.75,46.25
75.75,-55.75,13.25,46.75
82.85,-50.849999999999994,12.75,47.25
86.15,-50.150000000000006,24.5,59.5
81.35,-57.349999999999994,14.45,49.55
72.2,-68.2,30.35,65.65
80.4,-60.400000000000006,18.0,54.0
76.15,-64.15,11.25,48.75
75.05,-63.05,30.45,69.55
85.55,-49.55,10.3,49.7
69.75,-61.75,21.1,58.9
77.8,-49.8,28.85,63.15
64.3,-60.3,21.1,50.9
81.2,-41.2,36.8,63.2
78.75,-42.75,19.3,44.7
77.15,-45.15,34.3,61.7
68.0,-56.0,32.4,63.6
77.0,-49.0,16.45,51.55
81.75,-45.75,15.55,52.45
69.5,-57.5,11.95,48.05
70.7,-54.7,31.35,64.65
75.55,-47.55,16.75,47.25
66.4,-54.4,21.3,50.7
61.75,-57.75,14.6,45.4
68.0,-52.0,20.95,55.05
67.1,-55.1,25.15,62.85
78.45,-46.45,21.95,62.05
73.75,-53.75,11.850000000000001,52.15
78.1,-50.099999999999994,20.7,59.3
67.55,-59.55,32.1,67.9
82.0,-42.0,27.8,60.2
68.45,-52.45,19.7,48.3
63.75,-55.75,30.0,54.0
72.0,-48.0,24.85,43.15
65.45,-57.45,28.0,40.0
75.35,-51.35,46.65,53.35
68.65,-60.650000000000006,28.1,31.9
79.05,-51.05,31.75,36.25
65.95,-61.95,39.85,48.15
80.1,-44.1,37.2,50.8
66.05,-54.05,22.9,41.1
72.8,-44.8,28.05,47.95
66.65,-50.65,40.95,59.05
62.15,-58.15,41.05,54.95
72.8,-52.8,25.45,34.55
69.95,-61.95,29.2,34.8
88.55,-48.55,33.65,38.35
72.0,-68.0,42.9,49.1
88.0,-52.0,45.5,54.5
79.1,-59.099999999999994,38.25,49.75
87.85,-47.849999999999994,25.9,38.1
71.2,-63.2,24.75,35.25
85.65,-49.650000000000006,46.55,53.45
78.8,-58.8,28.55,31.45
86.2,-54.2,33.9,34.1
90.75,-50.75,32.1,31.9
81.8,-57.8,43.2,44.8
69.25,-65.25,47.75,52.25
74.3,-54.3,42.55,49.45
73.8,-49.8,42.0,50.0
70.9,-50.9,32.1,39.9
69.75,-53.75,30.45,37.55
69.65,-57.65,26.75,33.25
79.65,-51.650000000000006,36.85,43.15
84.55,-48.55,33.0,39.0
84.3,-48.3,47.45,52.55
71.15,-59.150000000000006,28.0,32.0
68.05,-60.05,48.3,51.7
82.05,-46.05,45.85,50.15
71.35,-59.349999999999994,40.4,47.6
73.7,-61.7,42.45,53.55
86.4,-54.400000000000006,26.7,41.3
80.1,-64.1,41.9,58.1
78.7,-66.7,22.3,37.7
76.0,-68.0,27.65,40.35
74.45,-66.45,29.15,38.85
74.7,-62.7,40.15,47.85
73.35,-61.349999999999994,38.3,45.7
68.75,-64.75,39.75,48.25
74.6,-58.599999999999994,45.0,55.0
80.5,-52.5,30.35,41.65
72.25,-60.25,36.1,47.9
69.3,-61.3,24.15,35.85
84.0,-44.0,44.3,55.7
75.0,-51.0,28.4,39.6
72.85,-52.85,26.4,37.6
68.4,-60.400000000000006,26.35,37.65
87.55,-47.55,34.5,45.5
73.25,-69.25,34.75,45.25
86.8,-62.8,25.2,34.8
81.1,-73.1,41.8,50.2
83.65,-71.65,26.55,33.45
84.75,-68.75,39.55,44.45
77.1,-73.1,30.7,33.3
74.95,-70.95,33.85,34.15
85.55,-57.55,46.75,45.25
72.85,-68.85,41.1,38.9
72.7,-68.7,40.55,39.45
87.05,-55.05,33.2,34.8
81.6,-61.599999999999994,47.4,52.6
77.85,-65.85,45.95,54.05
87.55,-55.55,45.45,54.55
88.9,-52.900000000000006,34.05,41.95
80.25,-60.25,47.55,52.45
79.4,-59.400000000000006,43.35,44.65
73.4,-65.4,34.85,33.15
78.2,-62.2,41.8,38.2
85.9,-57.900000000000006,36.15,31.85
93.85,-53.849999999999994,48.2,43.8
83.05,-67.05,44.05,39.95
76.9,-72.9,47.7,44.3
88.8,-56.8,47.15,44.85
77.6,-61.599999999999994,30.4,29.6
76.05,-56.05,39.7,40.3
76.0,-52.0,29.2,30.8
75.85,-51.85,47.05,48.95
70.05,-62.05,35.2,36.8
71.8,-67.8,43.6,44.4
81.8,-65.8,36.05,35.95
78.35,-74.35,38.45,37.55
86.55,-66.55,32.65,31.35
90.45,-58.45,30.6,29.4
75.1,-67.1,42.3,41.7
69.75,-65.75,45.85,46.15
77.7,-53.7,39.5,40.5
71.35,-59.349999999999994,45.5,46.5
80.5,-52.5,43.9,44.1
80.25,-56.25,30.7,29.3
83.7,-55.7,51.65,48.35
86.05,-54.05,52.45,47.55
83.4,-55.400000000000006,34.8,29.2
69.95,-65.95,48.7,43.3
80.6,-52.599999999999994,42.2,37.8
69.8,-61.8,37.7,34.3
85.8,-45.8,43.5,40.5
84.15,-48.150000000000006,43.8,40.2
82.5,-50.5,42.55,37.45
78.1,-54.099999999999994,33.7,26.3
70.55,-58.55,37.0,27.0
63.8,-59.8,46.3,33.7
64.45,-52.45,57.3,42.7
73.75,-37.75,47.85,32.15
64.45,-44.45,39.6,24.4
64.7,-44.7,52.5,39.5
64.25,-48.25,52.9,43.1
66.35,-50.35,35.25,28.75
68.1,-52.1,34.15,29.85
78.8,-42.8,49.9,46.1
72.35,-48.35,38.45,33.55
72.9,-44.9,49.15,42.85
65.15,-49.15,35.4,28.6
69.7,-41.7,52.95,47.05
71.2,-39.2,36.0,32.0
61.8,-49.8,33.2,30.8
61.3,-53.3,49.2,46.8
72.95,-44.95,34.2,29.8
70.55,-50.55,38.0,30.0
81.35,-41.35,35.8,24.2
65.6,-57.6,48.85,35.15
73.2,-49.2,40.45,27.55
63.4,-59.4,40.5,31.5
80.2,-44.2,37.4,34.6
80.3,-48.3,28.2,31.8
69.4,-65.4,32.0,40.0
90.3,-50.3,33.7,42.3
78.6,-66.6,33.7,38.3
84.9,-60.900000000000006,41.5,38.5
81.3,-61.3,44.05,31.95
75.8,-59.8,43.85,24.15
67.45,-59.45,43.85,20.15
73.8,-45.8,57.7,34.3
67.8,-47.8,55.95,36.05
72.05,-44.05,41.65,26.35
69.75,-49.75,53.65,42.35
72.05,-52.05,38.4,29.6
71.65,-55.65,49.9,42.1
67.95,-59.95,43.7,36.3
68.4,-56.4,41.5,34.5
70.1,-50.1,39.35,32.65
59.75,-55.75,41.6,34.4
72.65,-40.65,52.4,43.6
75.25,-39.25,43.55,32.45
65.75,-53.75,36.4,23.6
83.3,-43.3,52.1,39.9
70.55,-62.55,42.4,33.6
82.2,-54.2,31.8,28.2
77.85,-57.849999999999994,49.2,50.8
80.05,-52.05,29.8,34.2
75.75,-51.75,46.05,49.95
66.35,-58.35,37.75,38.25
70.45,-54.45,50.1,45.9
69.9,-57.9,50.05,41.95
71.8,-59.8,44.95,35.05
85.4,-49.400000000000006,44.55,35.45
87.8,-47.8,37.2,30.8
76.8,-56.8,49.5,46.5
82.85,-46.849999999999994,36.15,35.85
75.15,-51.15,47.65,48.35
73.9,-49.9,38.0,38.0
67.3,-55.3,42.9,41.1
65.55,-57.55,35.75,32.25
79.75,-43.75,41.95,38.05
73.7,-49.7,41.35,38.65
71.0,-51.0,38.15,37.85
69.5,-49.5,42.9,45.1
78.05,-38.05,34.1,37.9
62.7,-50.7,30.05,33.95
69.9,-41.9,40.85,43.15
73.65,-37.65,46.25,45.75
71.9,-39.9,47.85,44.15
60.45,-52.45,43.15,36.85
77.25,-37.25,45.8,38.2
77.75,-37.75,43.65,36.35
64.15,-52.15,38.9,33.1
64.6,-52.6,35.9,32.1
63.35,-55.35,45.15,42.85
78.1,-42.1,51.05,48.95
76.95,-44.95,41.7,38.3
73.2,-49.2,40.95,35.05
69.25,-53.25,42.45,33.55
71.3,-51.3,41.65,30.35
81.7,-41.7,50.05,37.95
82.7,-42.7,41.45,30.55
84.1,-44.099999999999994,33.95,26.05
71.65,-59.650000000000006,48.25,43.75
73.0,-61.0,51.05,48.95
73.85,-61.849999999999994,31.05,28.95
84.75,-52.75,32.3,27.7
73.4,-65.4,36.45,27.55
88.25,-52.25,44.55,31.45
80.7,-60.7,51.95,36.05
74.85,-66.85,42.35,25.65
82.6,-58.599999999999994,49.85,34.15
72.05,-68.05,56.85,43.15
83.55,-55.55,51.8,40.2
73.55,-65.55,47.0,37.0
71.6,-67.6,42.6,33.4
71.7,-67.7,54.65,45.35
71.7,-67.7,47.05,36.95
75.75,-63.75,39.45,28.55
79.8,-59.8,51.8,40.2
81.75,-57.75,51.9,40.1
81.65,-57.650000000000006,37.65,26.35
85.4,-53.400000000000006,55.15,44.85
84.75,-52.75,50.35,41.65
76.45,-60.45,37.35,30.65
78.15,-58.150000000000006,32.35,27.65
70.65,-66.65,51.5,48.5
77.55,-61.55,51.05,48.95
86.5,-54.5,39.1,36.9
87.35,-55.349999999999994,31.45,28.55
73.7,-69.7,37.8,34.2
91.2,-51.2,31.85,28.15
80.0,-60.0,37.55,34.45
82.3,-54.3,45.25,42.75
78.45,-54.45,47.45,44.55
66.8,-62.8,44.45,39.55
65.7,-61.7,44.05,35.95
83.35,-43.35,51.6,40.4
65.85,-61.85,54.35,41.65
83.3,-47.3,37.8,26.2
86.9,-46.900000000000006,36.15,27.85
76.45,-60.45,42.1,37.9
71.15,-67.15,34.5,33.5
87.2,-51.2,47.95,48.05
84.1,-52.099999999999994,36.65,35.35
68.35,-64.35,38.05,33.95
78.7,-50.7,53.65,46.35
67.65,-59.65,48.85,39.15
71.35,-55.35,35.55,24.45
67.65,-59.65,47.75,36.25
76.5,-52.5,45.75,34.25
69.05,-61.05,53.7,42.3
71.05,-59.05,45.75,34.25
66.45,-62.45,39.85,28.15
77.65,-49.65,49.9,38.1
81.65,-45.65,41.8,30.2
72.5,-56.5,53.65,42.35
72.55,-60.55,47.55,36.45
74.95,-62.95,55.5,44.5
85.0,-57.0,43.4,32.6
88.2,-56.2,43.2,32.8
89.75,-53.75,40.7,31.3
88.2,-52.2,44.2,35.8
76.25,-60.25,54.0,46.0
84.55,-48.55,36.6,27.4
67.35,-63.349999999999994,53.85,42.15
68.7,-60.7,53.45,38.55
74.55,-54.55,44.6,27.4
80.3,-48.3,46.7,29.3
72.2,-56.2,43.7,28.3
81.95,-45.95,53.95,42.05
65.85,-61.85,36.25,27.75
78.25,-50.25,47.25,40.75
85.05,-45.05,41.25,34.75
86.6,-46.599999999999994,47.95,40.05
76.4,-60.400000000000006,38.85,29.15
74.15,-66.15,53.25,42.75
81.55,-61.55,54.8,45.2
86.25,-58.25,35.6,28.4
89.7,-53.7,36.05,31.95
80.25,-60.25,42.8,41.2
82.5,-54.5,48.25,47.75
85.4,-49.400000000000006,46.45,45.55
76.2,-60.2,45.1,42.9
84.15,-60.150000000000006,43.7,40.3
89.4,-69.4,38.0,34.0
106.05,-74.05,51.85,48.15
105.75,-101.75,33.35,30.65
129.7,-113.7,40.65,39.35
161.75,-125.75,41.75,42.25
185.75,-157.75,46.6,49.4
224.05,-188.05,43.2,48.8
256.35,-236.35,45.65,54.35
293.6,-285.6,36.3,47.7
347.2,-319.2,39.65,52.35
382.45,-362.45,39.95,52.05
412.8,-396.8,41.3,50.7
441.9,-413.9,33.3,38.7
445.05,-441.05,35.2,36.8
459.2,-443.2,30.35,29.65
455.85,-451.85,36.25,35.75
470.35,-438.35,47.0,49.0
464.05,-444.05,41.2,46.8
457.6,-445.6,41.6,50.4
462.4,-430.4,42.75,53.25
444.5,-432.5,36.7,47.3
447.1,-407.1,44.95,55.05
416.95,-412.95,42.9,53.1
413.0,-389.0,28.25,39.75
405.15,-369.15,39.05,52.95
388.75,-356.75,27.9,44.1
375.2,-343.2,31.45,48.55
347.85,-343.85,38.15,53.85
348.0,-316.0,23.6,36.4
328.1,-312.1,26.85,37.15
328.4,-288.4,44.85,55.15
309.2,-285.2,25.15,38.85
302.45,-270.45,26.05,45.95
294.5,-258.5,17.0,43.0
268.85,-264.85,29.25,58.75
267.9,-247.89999999999998,25.75,54.25
255.75,-243.75,36.25,59.75
249.9,-233.9,29.75,46.25
242.65,-226.65,42.8,53.2
230.75,-226.75,28.4,35.6
226.2,-218.2,28.2,35.8
232.55,-200.55,26.75,37.25
229.8,-189.8,42.9,57.1
205.55,-201.55,33.5,50.5
198.75,-194.75,29.0,47.0
208.4,-172.4,27.5,44.5
196.45,-172.45,22.6,37.4
191.55,-167.55,25.8,38.2
191.05,-159.05,44.7,55.3
179.6,-163.6,33.05,42.95
174.15,-162.15,36.95,47.05
168.9,-160.9,44.65,55.35
176.6,-144.6,36.6,47.4
176.05,-136.05,42.9,53.1
157.25,-145.25,41.65,50.35
160.6,-132.6,30.45,37.55
163.5,-123.5,45.05,50.95
157.1,-125.1,37.15,42.85
151.75,-127.75,44.95,51.05
150.6,-126.6,38.7,45.3
152.9,-120.9,36.9,43.1
154.9,-114.9,31.5,36.5
134.5,-130.5,38.3,41.7
140.3,-120.30000000000001,38.75,41.25
147.0,-111.0,44.5,47.5
136.05,-120.05000000000001,31.6,36.4
135.2,-119.2,44.45,51.55
127.95,-123.95,33.65,42.35
126.3,-122.3,45.6,54.4
142.15,-102.15,44.45,51.55
133.45,-105.45,41.8,46.2
130.8,-102.8,35.1,36.9
130.8,-98.8,39.8,40.2
129.45,-97.45,45.65,46.35
114.95,-110.95,42.75,45.25
115.7,-111.7,47.45,52.55
128.8,-100.8,30.3,37.7
134.5,-98.5,31.55,40.45
134.0,-102.0,33.3,42.7
130.55,-106.55,39.5,48.5
137.95,-97.95,25.95,34.05
133.45,-97.45,38.55,45.45
130.0,-94.0,33.3,38.7
117.7,-97.7,42.2,45.8
119.95,-87.95,29.05,30.95
121.75,-81.75,45.8,46.2
115.15,-87.15,42.2,41.8
105.9,-97.9,30.0,30.0
112.35,-92.35,37.25,38.75
118.1,-86.1,48.15,51.85
107.9,-91.9,33.15,38.85
102.2,-90.2,28.5,35.5
112.75,-72.75,46.4,53.6
95.85,-83.85,40.7,47.3
97.05,-81.05,31.15,36.85
102.6,-78.6,39.35,44.65
107.35,-79.35,37.25,42.75
114.05,-78.05,42.8,49.2
107.45,-87.45,46.25,53.75
107.1,-87.1,39.9,48.1
105.1,-85.1,36.05,43.95
96.45,-88.45,30.85,37.15
91.75,-87.75,28.2,31.8
97.8,-77.8,35.8,36.2
93.2,-81.2,37.15,34.85
95.7,-79.7,51.75,48.25
98.15,-78.15,37.2,34.8
96.9,-80.9,39.65,40.35
101.2,-77.2,41.6,46.4
94.85,-82.85,39.9,48.1
90.35,-86.35,27.2,36.8
95.4,-79.4,29.7,38.3
93.9,-77.9,45.25,50.75
101.9,-65.9,39.3,40.7
91.9,-71.9,37.15,34.85
87.95,-71.95,48.55,43.45
94.25,-62.25,51.25,44.75
87.4,-67.4,45.5,38.5
88.75,-64.75,33.4,26.6
90.3,-62.3,51.05,44.95
83.95,-67.95,32.7,27.3
77.25,-73.25,46.5,41.5
94.6,-54.599999999999994,44.5,39.5
77.95,-69.95,44.85,39.15
82.1,-66.1,37.4,30.6
80.7,-68.7,43.9,36.1
81.45,-69.45,34.2,25.8
94.3,-58.3,54.15,45.85
94.15,-58.150000000000006,45.95,38.05
83.2,-67.2,46.05,37.95
87.65,-59.650000000000006,48.65,39.35
89.6,-53.599999999999994,53.85,42.15
73.5,-65.5,57.2,42.8
87.75,-47.75,52.2,35.8
72.45,-60.45,42.4,25.6
78.05,-54.05,57.8,42.2
78.3,-54.3,46.6,33.4
81.05,-53.05,43.3,32.7
70.3,-66.3,38.25,29.75
87.4,-51.400000000000006,51.75,44.25
81.6,-57.599999999999994,51.8,44.2
77.35,-61.349999999999994,34.2,25.8
80.3,-56.3,36.65,27.35
87.55,-47.55,43.0,33.0
76.7,-56.7,49.2,38.8
71.9,-59.900000000000006,41.45,30.55
77.2,-53.2,35.95,24.05
66.05,-62.05,44.7,31.3
80.8,-44.8,43.75,28.25
67.55,-55.55,44.6,27.4
72.85,-48.85,48.95,31.05
62.8,-58.8,48.65,31.35
77.2,-45.2,51.8,36.2
81.3,-41.3,50.8,37.2
67.3,-55.3,54.05,41.95
78.5,-42.5,49.7,38.3
69.8,-49.8,47.7,36.3
77.4,-41.4,49.75,38.25
75.35,-43.35,51.65,40.35
61.2,-57.2,35.35,24.65
66.25,-50.25,35.1,24.9
70.35,-42.35,49.15,38.85
57.95,-49.95,35.55,24.45
61.95,-41.95,46.1,33.9
55.2,-47.2,46.45,33.55
62.55,-42.55,42.3,29.7
67.3,-43.3,47.6,36.4
78.4,-38.4,36.85,27.15
77.2,-45.2,38.55,29.45
64.5,-60.5,37.15,26.85
80.85,-44.85,50.4,37.6
82.65,-42.65,47.5,32.5
66.75,-58.75,39.55,24.45
79.3,-47.3,44.05,31.95
70.6,-58.599999999999994,33.55,26.45
79.75,-51.75,49.15,46.85
74.45,-58.45,44.25,43.75
80.55,-52.55,43.65,40.35
80.15,-52.150000000000006,47.15,36.85
67.6,-63.599999999999994,47.45,28.55
73.45,-57.45,54.8,29.2
69.85,-61.849999999999994,51.95,24.05
74.45,-58.45,56.55,31.45
69.35,-65.35,59.3,40.7
86.45,-50.45,47.65,36.35
85.8,-53.8,52.85,47.15
73.25,-69.25,37.6,34.4
78.75,-66.75,41.7,38.3
93.9,-53.900000000000006,52.6,47.4
92.3,-56.3,43.5,36.5
89.3,-57.3,44.0,36.0
80.85,-60.849999999999994,38.1,29.9
77.4,-57.400000000000006,46.05,37.95
77.9,-49.9,40.1,31.9
66.7,-54.7,44.4,35.6
65.15,-53.15,50.9,41.1
69.1,-49.1,37.35,26.65
70.45,-50.45,53.8,42.2
74.65,-50.65,36.15,23.85
78.85,-50.849999999999994,50.4,37.6
74.45,-58.45,52.45,39.55
69.05,-65.05,38.3,25.7
78.5,-54.5,43.95,32.05
81.45,-49.45,51.8,40.2
70.0,-58.0,38.0,26.0
71.0,-55.0,50.7,37.3
66.4,-58.4,51.75,36.25
66.4,-58.4,52.55,35.45
76.55,-48.55,40.65,23.35
78.7,-46.7,57.65,42.35
66.9,-58.9,37.65,26.35
80.85,-44.85,33.2,26.8
82.95,-42.95,41.1,38.9
64.95,-60.95,44.05,43.95
76.95,-48.95,38.25,37.75
74.95,-50.95,49.45,46.55
66.6,-58.6,47.0,41.0
82.15,-42.15,38.2,29.8
77.75,-45.75,40.65,31.35
63.35,-59.35,44.3,35.7
65.25,-57.25,43.5,36.5
79.2,-43.2,52.75,47.25
68.65,-52.65,34.5,29.5
78.05,-42.05,48.8,43.2
65.4,-53.4,41.55,34.45
77.0,-41.0,46.45,37.55
67.5,-51.5,55.4,44.6
63.1,-59.1,44.15,31.85
81.0,-45.0,40.6,27.4
84.45,-44.45,38.45,25.55
66.9,-62.900000000000006,45.75,34.25
77.85,-49.85,34.6,25.4
65.95,-57.95,51.45,44.55
75.85,-43.85,32.75,27.25
74.95,-42.95,52.85,47.15
69.2,-49.2,37.6,30.4
76.8,-44.8,54.6,45.4
68.9,-56.9,39.25,28.75
80.8,-48.8,51.0,41.0
81.7,-49.7,43.8,36.2
73.85,-57.849999999999994,34.1,29.9
81.2,-49.2,36.55,35.45
81.95,-45.95,32.0,32.0
82.9,-42.9,42.7,41.3
81.75,-41.75,44.4,39.6
72.6,-48.6,50.45,41.55
67.75,-51.75,50.05,37.95
66.7,-50.7,40.6,27.4
61.75,-53.75,56.1,43.9
63.05,-51.05,49.0,39.0
74.7,-38.7,47.9,40.1
64.65,-48.65,41.1,34.9
58.9,-54.9,32.85,27.15
74.95,-38.95,47.05,40.95
71.1,-43.1,53.55,46.45
73.2,-41.2,50.2,41.8
71.45,-43.45,52.85,43.15
71.9,-43.9,53.25,42.75
60.5,-56.5,51.25,40.75
79.05,-39.05,36.85,27.15
77.3,-41.3,54.15,45.85
71.15,-47.15,47.45,40.55
66.55,-50.55,37.0,31.0
75.65,-39.65,44.9,39.1
66.85,-46.85,45.15,38.85
62.65,-50.65,33.55,26.45
69.5,-45.5,51.95,44.05
69.1,-49.1,54.25,45.75
65.4,-57.4,48.4,39.6
79.4,-47.4,46.25,37.75
80.5,-48.5,47.9,40.1
68.25,-60.25,39.3,32.7
74.9,-50.9,38.6,33.4
63.1,-59.1,35.95,32.05
69.65,-49.65,39.5,36.5
63.1,-55.1,31.45,28.55
69.65,-49.65,35.65,32.35
73.0,-49.0,31.9,28.1
76.15,-48.15,36.0,32.0
74.8,-50.8,41.9,38.1
76.75,-48.75,47.7,44.3
68.1,-56.1,37.65,34.35
77.35,-45.35,48.1,43.9
81.1,-41.1,33.05,26.95
75.45,-47.45,48.25,39.75
78.3,-46.3,35.25,24.75
83.25,-43.25,43.6,32.4
65.65,-61.65,43.2,32.8
81.4,-45.4,34.35,25.65
80.2,-44.2,43.55,36.45
68.7,-52.7,49.2,42.8
77.1,-41.1,33.25,26.75
64.25,-52.25,39.5,32.5
59.65,-55.65,39.45,32.55
61.65,-53.65,39.05,32.95
77.55,-37.55,48.4,43.6
64.95,-48.95,38.05,33.95
66.25,-46.25,44.3,39.7
69.25,-41.25,41.2,34.8
60.55,-48.55,52.5,43.5
72.45,-36.45,55.7,44.3
73.0,-37.0,44.5,31.5
57.5,-53.5,50.6,37.4
67.65,-43.65,46.05,33.95
59.45,-51.45,49.0,39.0
75.0,-35.0,35.75,28.25
58.7,-50.7,52.75,47.25
71.25,-39.25,38.25,33.75
66.4,-46.4,42.35,37.65
59.9,-55.9,52.95,47.05
71.2,-47.2,47.8,40.2
67.65,-51.65,38.55,29.45
74.95,-42.95,53.1,42.9
77.7,-37.7,45.35,34.65
65.95,-45.95,35.4,24.6
60.2,-48.2,43.3,32.7
62.95,-42.95,39.1,28.9
72.0,-32.0,34.75,25.25
57.85,-45.85,44.45,35.55
58.35,-46.35,42.2,33.8
61.15,-45.15,46.2,37.8
68.05,-40.05,34.6,25.4
68.95,-40.95,37.3,26.7
67.35,-43.35,56.0,44.0
67.2,-43.2,40.4,27.6
56.35,-52.35,54.05,41.95
64.9,-40.9,40.9,31.1
55.3,-47.3,51.2,44.8
61.7,-37.7,35.5,32.5
62.45,-34.45,42.25,41.75
54.1,-42.1,31.8,32.2
58.35,-38.35,45.95,46.05
61.05,-37.05,46.45,45.55
63.75,-35.75,36.95,35.05
61.85,-37.85,33.3,30.7
67.35,-31.35,41.7,38.3
56.4,-40.4,50.3,45.7
65.35,-29.35,39.2,32.8
52.65,-40.65,50.25,41.75
52.45,-40.45,37.25,26.75
60.7,-32.7,52.05,39.95
51.35,-43.35,42.45,29.55
60.0,-36.0,44.6,31.4
56.6,-40.6,52.45,39.55
67.1,-31.1,50.05,37.95
65.5,-33.5,35.6,24.4
60.15,-40.15,43.25,32.75
54.45,-46.45,53.3,42.7
54.7,-46.7,35.8,24.2
64.2,-36.2,46.6,33.4
57.35,-41.35,37.25,22.75
52.25,-44.25,41.3,26.7
51.8,-43.8,36.4,23.6
67.95,-27.950000000000003,34.6,25.4
52.7,-44.7,34.4,29.6
67.9,-31.9,32.5,31.5
58.7,-42.7,37.5,38.5
58.75,-42.75,47.6,48.4
64.2,-36.2,34.85,33.15
52.85,-44.85,36.95,31.05
57.15,-37.15,35.35,24.65
49.75,-41.75,55.5,40.5
61.0,-29.0,54.95,37.05
54.75,-34.75,43.25,24.75
48.65,-40.65,40.55,23.45
60.3,-28.299999999999997,49.15,34.85
55.15,-31.15,47.75,36.25
47.3,-35.3,39.1,28.9
51.15,-27.15,35.4,24.6
41.2,-33.2,56.6,43.4
51.95,-19.950000000000003,40.0,24.0
49.35,-21.35,49.05,30.95
47.3,-23.299999999999997,47.2,28.8
55.15,-15.149999999999999,54.55,37.45
54.35,-14.350000000000001,51.4,36.6
39.3,-27.299999999999997,54.4,41.6
36.0,-28.0,49.8,38.2
39.5,-23.5,47.8,36.2
48.05,-16.049999999999997,40.2,27.8
41.7,-25.700000000000003,50.65,37.35
45.95,-25.950000000000003,39.05,24.95
48.05,-28.049999999999997,47.25,32.75
47.15,-31.15,47.3,32.7
48.95,-28.950000000000003,37.05,22.95
55.6,-19.6,56.35,43.65
54.05,-18.049999999999997,39.25,28.75
50.85,-18.85,43.85,36.15
45.0,-25.0,36.4,31.6
54.1,-18.1,33.35,30.65
49.8,-25.799999999999997,30.9,29.1
47.3,-31.299999999999997,31.25,28.75
41.85,-37.85,32.25,27.75
45.4,-33.4,33.6,26.4
46.3,-30.299999999999997,38.8,29.2
49.45,-25.450000000000003,47.5,36.5
49.65,-25.65,41.5,30.5
44.85,-32.85,35.1,24.9
52.9,-28.9,44.55,35.45
59.2,-27.200000000000003,36.25,27.75
62.85,-26.85,44.35,35.65
63.6,-27.6,50.6,41.4
49.25,-41.25,52.6,43.4
48.55,-40.55,50.15,41.85
51.65,-35.65,45.4,38.6
57.05,-29.049999999999997,44.85,39.15
44.8,-40.8,49.0,43.0
48.95,-36.95,33.85,26.15
47.3,-39.3,45.0,35.0
45.9,-41.9,39.8,28.2
46.75,-42.75,51.85,40.15
57.5,-33.5,45.15,34.85
47.75,-43.75,36.4,27.6
57.15,-33.15,48.25,39.75
59.75,-27.75,38.95,29.05
61.85,-21.85,48.15,35.85
58.45,-22.450000000000003,43.05,28.95
54.25,-26.25,43.1,28.9
51.0,-31.0,56.25,43.75
52.65,-32.65,55.05,44.95
56.4,-32.4,40.3,31.7
63.4,-27.4,34.75,25.25
63.5,-27.5,56.3,43.7
56.75,-32.75,40.35,23.65
53.35,-33.35,47.8,28.2
47.35,-35.35,39.95,20.05
47.2,-31.200000000000003,54.65,37.35
44.95,-28.950000000000003,44.45,31.55
49.05,-21.049999999999997,36.15,27.85
39.7,-27.700000000000003,44.55,39.45
47.35,-19.35,40.0,36.0
47.95,-19.950000000000003,46.6,41.4
51.4,-19.4,51.95,44.05
41.45,-33.45,43.65,32.35
53.55,-25.549999999999997,37.25,22.75
43.25,-39.25,50.4,33.6
52.4,-32.4,58.85,41.15
46.5,-38.5,56.5,39.5
57.9,-25.9,57.5,42.5
58.65,-22.65,38.25,25.75
57.0,-21.0,43.3,32.7
55.45,-19.450000000000003,51.15,40.85
48.55,-24.549999999999997,45.85,34.15
54.85,-18.85,54.95,41.05
56.55,-20.549999999999997,39.75,24.25
47.25,-35.25,43.5,28.5
56.3,-32.3,38.25,25.75
48.35,-44.35,38.3,29.7
48.95,-44.95,50.4,45.6
55.75,-35.75,31.35,28.65
55.35,-31.35,31.55,28.45
48.5,-32.5,40.75,35.25
46.5,-30.5,36.5,27.5
41.85,-33.85,44.1,31.9
40.7,-36.7,53.0,39.0
42.25,-38.25,48.95,35.05
43.6,-39.6,36.0,24.0
50.2,-34.2,44.45,35.55
53.95,-29.950000000000003,48.8,43.2
53.15,-29.15,47.65,44.35
50.6,-30.6,35.25,32.75
56.5,-24.5,31.55,28.45
57.3,-25.299999999999997,36.05,31.95
54.5,-30.5,44.1,39.9
57.75,-29.75,33.5,30.5
57.1,-33.1,34.4,33.6
57.85,-33.85,33.5,34.5
66.0,-26.0,33.5,34.5
61.55,-29.549999999999997,40.6,39.4
46.8,-42.8,36.65,31.35
54.25,-34.25,34.75,25.25
50.15,-38.15,48.15,35.85
47.15,-43.15,50.3,37.7
52.85,-40.85,39.25,28.75
62.75,-34.75,43.25,36.75
68.25,-32.25,41.05,38.95
62.85,-38.85,39.25,40.75
52.55,-48.55,46.3,49.7
63.85,-35.85,44.3,47.7
57.3,-41.3,37.15,38.85
65.2,-33.2,46.5,45.5
63.55,-35.55,34.05,29.95
70.15,-30.15,49.5,42.5
64.5,-36.5,36.8,27.2
58.25,-42.25,49.8,38.2
53.4,-45.4,40.3,27.7
52.35,-44.35,40.1,27.9
57.85,-37.85,53.2,42.8
54.2,-42.2,37.95,30.05
63.55,-35.55,40.7,35.3
61.4,-41.4,41.85,38.15
55.0,-51.0,45.5,42.5
56.05,-52.05,37.55,34.45
69.95,-37.95,35.7,32.3
54.8,-50.8,35.9,32.1
59.15,-43.15,46.2,41.8
51.15,-47.15,38.85,33.15
57.65,-37.65,37.6,30.4
51.25,-43.25,34.2,25.8
62.15,-34.15,44.15,35.85
54.4,-46.4,49.3,42.7
65.15,-41.15,45.8,42.2
67.3,-43.3,36.15,35.85
62.35,-50.35,39.05,40.95
67.9,-43.9,35.0,37.0
60.25,-48.25,35.95,36.05
70.45,-34.45,39.45,36.55
68.95,-32.95,44.65,39.35
65.8,-33.8,37.0,31.0
59.05,-39.05,50.65,45.35
68.05,-28.049999999999997,40.05,35.95
60.8,-32.8,37.95,34.05
55.2,-35.2,42.65,37.35
59.8,-27.799999999999997,34.15,25.85
61.35,-25.35,45.8,34.2
45.8,-41.8,51.1,36.9
53.4,-37.4,48.05,31.95
53.5,-41.5,59.0,41.0
56.3,-44.3,56.65,35.35
69.95,-37.95,45.6,18.4
71.35,-47.35,49.8,14.2
81.4,-53.400000000000006,64.7,19.3
96.5,-60.5,57.4,2.6000000000000014
103.95,-79.95,77.35,14.649999999999999
110.7,-102.7,76.6,7.399999999999999
128.55,-112.55,87.55,12.450000000000003
147.7,-115.69999999999999,73.0,-9.0
148.95,-128.95,85.25,-5.25
149.55,-133.55,92.25,-8.25
148.4,-132.4,85.1,-25.1
150.1,-122.1,91.05,-27.049999999999997
134.9,-126.9,99.5,-23.5
133.55,-117.55,110.45,-14.450000000000003
128.1,-116.1,104.05,-20.049999999999997
130.5,-110.5,105.05,-17.049999999999997
138.7,-102.7,89.8,-29.799999999999997
127.35,-115.35,88.65,-28.65
134.05,-110.05,100.2,-16.200000000000003
131.9,-111.9,96.2,-20.200000000000003
128.55,-112.55,92.5,-24.5
138.7,-98.7,104.85,-12.850000000000001
118.8,-114.8,95.1,-23.1
131.45,-99.45,104.8,-12.799999999999997
118.9,-110.9,104.45,-12.450000000000003
129.2,-101.2,96.1,-20.1
134.35,-98.35,104.05,-12.049999999999997
137.45,-97.45,106.05,-10.049999999999997
126.4,-110.4,106.0,-10.0
124.9,-112.9,87.8,-27.799999999999997
122.4,-114.4,97.45,-17.450000000000003
126.55,-110.55,97.3,-17.299999999999997
128.65,-108.65,97.3,-17.299999999999997
129.15,-109.15,91.5,-23.5
131.95,-107.95,103.65,-11.649999999999999
132.85,-108.85,91.9,-23.9
137.35,-105.35,106.1,-10.100000000000001
133.3,-109.3,102.25,-14.25
129.15,-113.15,92.55,-24.549999999999997
135.35,-107.35,96.75,-20.75
130.0,-114.0,98.95,-18.950000000000003
126.85,-118.85,100.95,-16.950000000000003
136.25,-112.25,98.75,-18.75
129.75,-121.75,108.2,-8.200000000000003
142.2,-110.2,103.65,-11.649999999999999
136.25,-116.25,103.7,-11.700000000000003
138.95,-110.95,90.1,-26.1
134.95,-110.95,93.0,-25.0
124.4,-116.4,99.8,-19.799999999999997
126.3,-110.3,90.3,-30.299999999999997
131.1,-103.1,100.5,-20.5
133.05,-101.05,96.2,-24.200000000000003
124.15,-112.15,107.9,-11.899999999999999
136.4,-104.4,105.8,-13.799999999999997
124.05,-120.05,98.05,-22.049999999999997
140.85,-104.85,96.25,-24.25
142.5,-102.5,98.45,-22.450000000000003
126.6,-114.6,108.6,-12.600000000000001
121.9,-113.9,100.9,-20.9
131.2,-99.2,105.25,-17.25
129.4,-97.4,111.95,-11.950000000000003
121.25,-105.25,106.9,-18.9
122.85,-106.85,105.6,-21.6
125.05,-109.05,107.75,-19.75
136.75,-100.75,113.1,-13.100000000000001
121.3,-117.3,92.1,-32.1
131.95,-103.95,110.9,-10.899999999999999
129.95,-101.95,99.95,-19.950000000000003
125.95,-101.95,103.85,-15.850000000000001
120.55,-104.55,106.4,-14.399999999999999
124.7,-100.7,93.75,-29.75
121.25,-105.25,100.95,-24.950000000000003
126.8,-102.8,109.75,-17.75
134.3,-98.3,105.55,-21.549999999999997
121.9,-113.9,106.65,-18.65
134.85,-102.85,91.25,-31.25
129.05,-109.05,106.1,-14.100000000000001
120.75,-116.75,105.6,-13.600000000000001
137.9,-97.9,91.95,-27.950000000000003
134.85,-98.85,99.0,-23.0
128.3,-104.3,112.55,-12.549999999999997
129.15,-101.15,103.9,-23.9
134.9,-94.9,106.6,-22.599999999999994
121.85,-105.85,102.65,-26.650000000000006
124.4,-100.4,98.25,-30.25
117.7,-101.7,95.6,-31.6
113.1,-101.1,97.2,-29.200000000000003
122.75,-86.75,106.8,-18.799999999999997
118.45,-90.45,98.6,-26.6
118.1,-94.1,104.3,-20.299999999999997
116.75,-100.75,101.8,-21.799999999999997
121.25,-101.25,107.35,-15.350000000000001
121.05,-105.05,97.0,-25.0
119.4,-107.4,107.05,-15.049999999999997
124.85,-100.85,101.4,-21.4
131.9,-91.9,95.95,-27.950000000000003
127.45,-95.45,106.5,-18.5
115.3,-107.3,108.8,-16.799999999999997
119.85,-103.85,96.3,-28.299999999999997
118.3,-106.3,109.45,-13.450000000000003
114.55,-110.55,100.35,-20.35
126.65,-98.65,89.35,-29.35
122.1,-102.1,99.05,-19.049999999999997
131.85,-91.85,99.65,-19.65
129.7,-93.7,90.95,-30.950000000000003
124.05,-100.05,98.35,-26.35
125.0,-101.0,95.7,-31.700000000000003
128.25,-100.25,102.1,-26.099999999999994
131.45,-99.45,107.45,-19.450000000000003
128.1,-104.1,108.05,-16.049999999999997
124.35,-108.35,92.55,-28.549999999999997
131.4,-99.4,103.75,-15.75
120.15,-108.15,107.75,-11.75
117.1,-109.1,100.6,-20.6
120.5,-104.5,103.45,-19.450000000000003
130.7,-94.7,95.55,-27.549999999999997
129.95,-97.95,104.45,-16.450000000000003
121.75,-109.75,96.7,-20.700000000000003
135.3,-99.3,105.1,-9.100000000000001
132.05,-104.05,106.95,-6.950000000000003
123.65,-111.65,98.55,-18.549999999999997
124.65,-108.65,93.4,-29.4
127.95,-103.95,108.4,-20.400000000000006
131.9,-99.9,98.25,-34.25
132.95,-100.95,98.25,-34.25
123.55,-115.55,114.4,-14.400000000000006
137.45,-105.45,107.8,-15.799999999999997
128.9,-116.9,93.5,-25.5
132.55,-112.55,90.1,-26.1
127.4,-115.4,97.55,-17.549999999999997
129.3,-109.3,107.9,-7.899999999999999
134.2,-102.2,102.05,-14.049999999999997
126.35,-110.35,94.15,-22.15
133.6,-105.6,100.4,-16.4
137.2,-105.2,92.7,-24.700000000000003
135.8,-107.8,91.25,-27.25
125.65,-117.65,103.8,-15.799999999999997
130.75,-110.75,89.5,-29.5
121.7,-117.7,102.55,-14.549999999999997
133.7,-105.7,92.95,-20.950000000000003
124.55,-116.55,85.0,-25.0
125.85,-117.85,85.8,-21.799999999999997
130.75,-114.75,83.55,-23.549999999999997
132.6,-112.6,102.25,-6.25
135.65,-107.65,105.25,-5.25
121.7,-117.7,100.55,-12.549999999999997
135.95,-99.95,97.6,-17.6
122.9,-110.9,100.3,-16.299999999999997
134.75,-98.75,108.8,-8.799999999999997
129.2,-105.2,107.35,-11.350000000000001
131.65,-103.65,105.8,-13.799999999999997
122.15,-114.15,108.0,-12.0
136.6,-100.6,95.75,-23.75
125.15,-113.15,90.8,-26.799999999999997
122.45,-118.45,103.25,-11.25
123.95,-119.95,89.7,-21.700000000000003
128.9,-116.9,104.6,-4.600000000000001
142.95,-102.95,92.45,-16.450000000000003
139.25,-103.25,91.2,-19.200000000000003
131.05,-107.05,96.4,-16.4
128.45,-104.45,89.7,-25.700000000000003
126.45,-102.45,94.5,-22.5
119.2,-107.2,94.85,-22.85
114.55,-110.55,90.6,-26.6
118.05,-106.05,101.9,-13.899999999999999
128.25,-96.25,87.35,-27.35
114.1,-110.1,96.75,-16.75
116.5,-108.5,104.3,-8.299999999999997
119.15,-107.15,91.85,-19.85
122.4,-106.4,101.6,-9.600000000000001
127.7,-103.7,101.6,-9.600000000000001
131.2,-103.2,101.7,-9.700000000000003
119.9,-115.9,85.55,-25.549999999999997
122.5,-114.5,89.25,-21.25
132.65,-104.65,94.6,-14.600000000000001
136.15,-100.15,94.25,-14.25
121.5,-113.5,100.25,-8.25
129.05,-105.05,87.05,-23.049999999999997
122.3,-110.3,88.2,-24.200000000000003
120.4,-112.4,95.5,-19.5
134.55,-98.55,92.3,-24.299999999999997
130.85,-102.85,100.75,-16.75
119.3,-115.3,104.75,-12.75
118.55,-114.55,104.75,-12.75
135.65,-95.65,100.8,-16.799999999999997
121.65,-105.65,94.95,-22.950000000000003
130.8,-94.8,98.75,-18.75
122.6,-102.6,108.75,-8.75
122.55,-106.55,88.7,-28.700000000000003
131.2,-103.2,89.25,-29.25
132.3,-108.3,94.0,-26.0
132.75,-112.75,107.3,-15.299999999999997
129.25,-117.25,104.35,-20.35
136.7,-108.7,113.15,-13.149999999999999
125.9,-117.9,100.9,-24.9
133.5,-109.5,106.3,-18.299999999999997
124.15,-120.15,91.4,-31.4
129.75,-117.75,98.65,-22.65
140.05,-112.05,100.55,-20.549999999999997
136.0,-120.0,93.0,-29.0
142.9,-114.9,95.8,-27.799999999999997
135.1,-123.1,112.9,-12.899999999999999
130.85,-126.85,103.65,-23.65
144.25,-112.25,104.1,-24.099999999999994
144.25,-112.25,110.05,-18.049999999999997
146.4,-110.4,103.75,-23.75
131.3,-127.30000000000001,95.35,-31.35
139.75,-119.75,100.8,-24.799999999999997
132.2,-128.2,104.5,-20.5
136.35,-124.35,106.4,-18.4
139.95,-119.94999999999999,108.65,-16.65
149.3,-109.30000000000001,111.35,-15.350000000000001
142.7,-114.69999999999999,111.85,-15.850000000000001
140.65,-116.65,100.4,-28.400000000000006
134.25,-122.25,110.65,-18.650000000000006
132.4,-124.4,106.3,-22.299999999999997
135.5,-123.5,107.65,-19.65
136.7,-124.69999999999999,104.35,-20.35
152.1,-112.1,103.5,-19.5
145.4,-121.4,94.8,-26.799999999999997
136.1,-132.1,92.4,-28.4
147.4,-119.4,100.55,-20.549999999999997
137.65,-125.65,93.1,-29.1
137.25,-121.25,99.95,-23.950000000000003
128.2,-124.2,110.65,-14.649999999999999
128.35,-120.35,113.1,-13.100000000000001
144.35,-104.35,107.25,-19.25
130.4,-122.4,94.7,-30.700000000000003
133.55,-125.55000000000001,91.7,-31.700000000000003
148.6,-116.6,102.75,-18.75
154.9,-114.9,94.45,-26.450000000000003
153.3,-117.30000000000001,102.3,-18.299999999999997
147.85,-119.85,106.55,-14.549999999999997
135.45,-127.44999999999999,110.6,-10.600000000000001
139.35,-119.35,102.4,-18.4
132.4,-124.4,99.8,-19.799999999999997
140.4,-116.4,109.05,-9.049999999999997
147.3,-111.30000000000001,92.25,-24.25
132.3,-128.3,103.6,-11.600000000000001
133.05,-129.05,89.7,-25.700000000000003
147.3,-115.30000000000001,100.4,-16.4
145.75,-117.75,109.05,-9.049999999999997
142.85,-122.85,91.65,-27.65
139.9,-127.9,95.9,-23.9
151.05,-119.05000000000001,101.5,-17.5
155.05,-115.05000000000001,98.65,-18.65
143.95,-123.94999999999999,103.4,-11.399999999999999
145.05,-117.05000000000001,88.1,-24.1
146.15,-110.15,84.55,-24.549999999999997
136.75,-112.75,88.7,-16.700000000000003
134.9,-106.9,92.05,-8.049999999999997
136.5,-96.5,82.4,-10.399999999999999
120.55,-100.55,79.5,-3.5
121.15,-85.15,65.3,-5.299999999999997
101.05,-89.05,70.2,13.8
98.0,-78.0,69.05,26.95
96.45,-68.45,54.7,25.3
95.3,-63.3,52.1,31.9
88.45,-68.45,41.8,26.2
86.95,-70.95,49.9,34.1
84.0,-76.0,55.75,36.25
88.95,-72.95,58.3,33.7
101.8,-61.8,56.4,27.6
102.05,-62.05,49.1,18.9
98.0,-66.0,62.15,33.85
91.9,-71.9,41.8,18.2
85.35,-77.35,51.1,32.9
84.55,-76.55,43.05,28.95
97.5,-61.5,48.4,35.6
89.9,-65.9,57.25,42.75
94.35,-58.349999999999994,50.8,33.2
84.9,-64.9,44.25,23.75
86.0,-62.0,48.75,27.25
76.45,-72.45,52.15,31.85
79.55,-71.55,48.8,31.2
92.9,-60.900000000000006,43.4,28.6
87.9,-67.9,44.75,31.25
93.9,-61.900000000000006,41.05,26.95
80.6,-72.6,52.05,35.95
92.85,-56.849999999999994,43.05,24.95
81.25,-65.25,45.3,26.7
82.85,-62.849999999999994,54.6,37.4
89.75,-57.75,51.4,36.6
93.2,-57.2,52.35,39.65
80.45,-72.45,42.4,29.6
91.05,-63.05,53.8,38.2
82.55,-70.55,40.3,19.7
91.85,-59.849999999999994,54.8,29.2
77.1,-73.1,56.05,27.95
89.35,-61.349999999999994,47.2,20.8
85.95,-65.95,54.25,33.75
90.8,-62.8,48.35,35.65
93.1,-61.099999999999994,43.0,37.0
84.25,-68.25,35.5,32.5
88.4,-60.400000000000006,36.4,31.6
89.65,-53.650000000000006,53.0,43.0
70.5,-66.5,48.05,31.95
84.2,-48.2,60.1,39.9
83.05,-47.05,48.55,27.45
71.3,-59.3,39.4,20.6
78.0,-54.0,47.45,32.55
78.85,-54.849999999999994,41.45,30.55
79.2,-55.2,44.15,35.85
79.15,-55.150000000000006,53.65,46.35
81.0,-53.0,46.0,38.0
83.05,-51.05,38.9,29.1
85.25,-49.25,40.1,27.9
75.55,-59.55,47.35,32.65
78.85,-54.849999999999994,56.45,39.55
81.75,-49.75,59.15,40.85
76.3,-52.3,57.2,38.8
77.0,-49.0,56.45,39.55
70.35,-54.35,41.1,26.9
82.3,-42.3,53.6,42.4
78.4,-46.4,42.6,33.4
72.2,-52.2,54.55,45.45
69.5,-53.5,43.45,32.55
64.2,-56.2,36.85,23.15
64.45,-52.45,39.9,24.1
77.05,-37.05,48.1,31.9
68.2,-44.2,45.35,30.65
64.6,-48.6,51.9,40.1
73.75,-41.75,38.4,29.6
61.7,-57.7,41.5,34.5
75.35,-47.35,33.5,26.5
72.05,-52.05,40.15,31.85
65.75,-57.75,50.85,41.15
74.6,-46.6,42.95,33.05
79.25,-39.25,54.1,45.9
64.05,-52.05,52.55,47.45
77.5,-37.5,33.0,31.0
71.75,-43.75,34.05,33.95
62.85,-54.85,42.05,41.95
73.85,-45.85,36.75,35.25
80.55,-40.55,37.5,34.5
64.7,-56.7,47.65,44.35
70.2,-50.2,50.9,49.1
61.35,-57.35,35.5,36.5
76.45,-40.45,44.05,47.95
72.05,-44.05,45.25,50.75
68.25,-48.25,35.45,40.55
64.85,-52.85,32.6,35.4
63.15,-55.15,36.2,35.8
73.45,-45.45,51.6,48.4
79.3,-39.3,44.15,39.85
65.2,-53.2,35.5,32.5
71.65,-47.65,37.85,38.15
66.6,-54.6,45.8,50.2
68.1,-56.1,44.1,51.9
69.1,-57.1,25.3,34.7
69.65,-57.65,31.7,40.3
73.0,-53.0,38.9,45.1
65.65,-57.65,34.3,37.7
80.25,-40.25,49.35,50.65
61.5,-57.5,29.6,30.4
73.8,-45.8,41.1,42.9
73.2,-49.2,40.15,43.85
78.9,-46.9,27.0,33.0
84.35,-44.349999999999994,31.85,40.15
80.75,-48.75,28.6,39.4
80.4,-48.400000000000006,29.35,42.65
81.65,-45.65,32.2,47.8
83.25,-43.25,29.45,46.55
81.5,-45.5,41.3,58.7
70.5,-58.5,41.85,58.15
73.25,-57.25,26.8,41.2
73.35,-57.349999999999994,43.7,56.3
82.55,-46.55,34.25,45.75
76.95,-48.95,40.4,51.6
63.8,-59.8,24.25,35.75
67.0,-55.0,24.05,35.95
69.1,-53.1,43.9,56.1
67.7,-55.7,43.65,56.35
72.15,-52.15,27.2,40.8
69.8,-53.8,38.55,53.45
74.9,-46.9,27.8,44.2
65.55,-53.55,33.25,50.75
74.35,-42.35,23.3,40.7
69.7,-45.7,30.1,45.9
64.25,-52.25,33.5,46.5
63.6,-55.6,41.05,50.95
79.5,-43.5,34.2,41.8
73.0,-53.0,26.3,33.7
79.9,-47.9,33.25,42.75
75.7,-51.7,35.5,48.5
80.45,-44.45,31.8,48.2
76.3,-44.3,21.1,38.9
74.05,-42.05,35.6,52.4
75.9,-35.9,38.95,53.05
62.3,-46.3,34.45,45.55
55.15,-51.15,41.35,50.65
68.95,-36.95,43.4,52.6
55.0,-51.0,39.1,48.9
65.15,-41.15,25.05,34.95
62.9,-42.9,45.6,54.4
60.5,-44.5,36.6,43.4
57.95,-45.95,37.5,42.5
54.0,-50.0,43.8,48.2
56.9,-48.9,37.3,42.7
68.2,-40.2,30.15,37.85
75.6,-35.6,26.95,37.05
64.05,-48.05,28.3,39.7
72.7,-36.7,38.6,49.4
53.9,-49.9,43.75,52.25
54.25,-42.25,41.35,46.65
50.65,-38.65,46.65,49.35
56.4,-28.4,49.1,50.9
45.95,-37.95,30.4,33.6
45.15,-41.15,28.8,35.2
63.35,-27.35,42.65,53.35
65.7,-29.700000000000003,40.7,55.3
59.5,-39.5,37.25,54.75
58.45,-42.45,26.5,45.5
62.45,-38.45,36.45,55.55
69.85,-29.85,26.95,45.05
59.0,-39.0,23.85,40.15
60.25,-36.25,27.0,41.0
55.9,-39.9,34.2,45.8
50.1,-46.1,31.0,41.0
52.9,-44.9,35.25,44.75
66.2,-34.2,36.85,47.15
61.7,-41.7,42.2,53.8
71.05,-35.05,23.6,36.4
65.9,-41.9,41.25,54.75
56.3,-52.3,39.05,52.95
67.0,-43.0,36.8,51.2
62.3,-50.3,32.1,47.9
66.45,-50.45,20.9,39.1
79.1,-43.1,39.25,60.75
75.4,-51.4,21.6,46.4
78.85,-50.849999999999994,18.4,45.6
74.85,-54.849999999999994,18.3,45.7
65.5,-61.5,21.5,46.5
75.95,-47.95,27.8,48.2
66.75,-54.75,34.6,49.4
70.95,-50.95,40.95,51.05
78.7,-46.7,42.15,49.85
81.65,-49.650000000000006,25.75,34.25
84.7,-52.7,24.2,35.8
75.05,-67.05,42.3,57.7
89.75,-53.75,23.1,40.9
90.4,-50.400000000000006,35.35,52.65
76.1,-60.099999999999994,41.05,54.95
75.95,-55.95,37.35,46.65
77.15,-53.150000000000006,29.2,34.8
86.0,-46.0,35.65,40.35
86.35,-50.349999999999994,36.4,43.6
72.8,-68.8,30.0,42.0
84.4,-60.400000000000006,27.55,44.45
90.55,-54.55,38.1,57.9
73.15,-69.15,40.1,59.9
81.05,-57.05,33.4,50.6
75.6,-59.599999999999994,41.15,54.85
87.6,-47.599999999999994,24.35,35.65
75.8,-63.8,28.55,39.45
75.35,-71.35,41.65,54.35
83.35,-71.35,42.2,57.8
98.55,-62.55,22.95,41.05
93.55,-69.55,36.45,55.55
92.25,-68.25,20.8,39.2
80.95,-72.95,27.5,44.5
87.4,-59.400000000000006,37.85,54.15
82.7,-58.7,39.3,56.7
84.0,-56.0,31.8,52.2
76.8,-64.8,17.9,42.1
82.35,-62.349999999999994,18.35,45.65
89.25,-57.25,21.75,50.25
89.55,-57.55,18.05,45.95
83.1,-63.099999999999994,24.9,51.1
90.65,-54.650000000000006,23.85,48.15
74.45,-70.45,18.55,41.45
82.65,-62.650000000000006,35.0,57.0
88.9,-56.900000000000006,21.2,42.8
79.3,-67.3,39.35,60.65
83.1,-63.099999999999994,23.4,44.6
92.65,-52.650000000000006,35.4,56.6
79.95,-63.95,33.45,54.55
83.15,-59.150000000000006,35.6,56.4
86.45,-54.45,20.05,39.95
74.05,-66.05,20.75,39.25
83.65,-55.650000000000006,37.45,54.55
71.35,-67.35,39.7,56.3
85.4,-53.400000000000006,33.2,50.8
89.25,-49.25,33.75,54.25
87.4,-51.400000000000006,19.7,44.3
83.85,-55.849999999999994,33.85,62.15
78.0,-62.0,31.0,61.0
86.05,-54.05,35.45,64.55
73.7,-65.7,25.1,50.9
74.7,-62.7,35.1,56.9
83.7,-51.7,22.6,41.4
86.65,-46.650000000000006,37.05,54.95
81.75,-49.75,40.4,59.6
70.95,-58.95,35.0,57.0
72.2,-56.2,17.5,42.5
66.95,-58.95,18.35,45.65
81.7,-41.7,23.75,52.25
76.85,-44.85,29.75,58.25
72.35,-48.35,16.25,43.75
70.85,-50.85,20.95,47.05
74.15,-50.15,27.6,52.4
84.4,-44.400000000000006,25.8,50.2
68.25,-64.25,27.55,52.45
85.35,-49.349999999999994,36.95,63.05
81.1,-53.099999999999994,22.5,49.5
71.65,-59.650000000000006,28.55,55.45
82.15,-46.150000000000006,17.15,42.85
69.35,-57.35,32.05,55.95
72.3,-56.3,34.9,57.1
70.95,-62.95,25.45,46.55
88.15,-52.150000000000006,21.6,42.4
86.65,-58.650000000000006,31.7,52.3
75.2,-71.2,37.8,58.2
83.9,-59.900000000000006,25.95,46.05
89.35,-49.349999999999994,27.9,48.1
72.55,-60.55,23.5,44.5
74.9,-54.900000000000006,36.7,59.3
78.4,-50.400000000000006,33.65,58.35
76.95,-52.95,36.6,63.4
77.85,-53.849999999999994,21.95,50.05
68.2,-64.2,15.6,44.4
77.95,-53.95,35.65,64.35
83.25,-47.25,21.8,50.2
82.3,-46.3,22.1,49.9
69.2,-57.2,32.55,59.45
70.1,-54.1,37.05,62.95
73.45,-49.45,25.4,50.6
81.3,-41.3,23.5,48.5
76.45,-48.45,31.05,56.95
70.7,-58.7,24.05,51.95
82.35,-54.349999999999994,16.7,47.3
75.7,-71.7,23.25,56.75
96.6,-64.6,30.05,65.95
105.6,-73.6,31.35,68.65
109.7,-93.7,31.2,68.8
135.8,-99.8,15.600000000000001,52.4
148.6,-128.6,12.2,47.8
171.25,-159.25,28.9,63.1
213.4,-181.4,15.350000000000001,48.65
247.25,-223.25,23.5,56.5
296.55,-256.55,19.25,52.75
330.55,-306.55,16.3,51.7
363.5,-355.5,16.65,55.35
396.65,-392.65,14.75,57.25
430.55,-414.55,19.15,64.85
453.3,-429.3,24.55,71.45
459.05,-447.05,9.350000000000001,54.65
472.65,-440.65,15.2,56.8
459.8,-455.8,29.35,66.65
467.35,-447.35,30.85,65.15
472.9,-436.9,27.3,60.7
470.1,-434.1,12.899999999999999,47.1
453.8,-437.8,16.3,51.7
451.85,-419.85,30.05,65.95
432.3,-412.3,32.2,67.8
411.8,-399.8,14.5,49.5
408.6,-368.6,16.15,51.85
388.2,-356.2,12.899999999999999,51.1
368.05,-348.05,10.7,53.3
356.1,-336.1,6.350000000000001,53.65
340.45,-328.45,24.6,75.4
341.4,-301.4,23.95,76.05
314.4,-302.4,8.05,59.95
306.35,-282.35,12.45,63.55
290.1,-274.1,10.350000000000001,61.65
278.75,-262.75,19.4,72.6
271.75,-251.75,11.899999999999999,68.1
255.75,-251.75,2.6999999999999993,61.3
248.5,-244.5,14.399999999999999,73.6
241.55,-237.55,19.15,76.85
234.5,-230.5,22.6,77.4
231.6,-219.6,20.0,72.0
233.2,-205.2,10.600000000000001,61.4
219.9,-207.9,4.050000000000001,55.95
225.45,-193.45,8.7,63.3
213.55,-197.55,7.050000000000001,64.95
216.0,-188.0,17.85,78.15
200.05,-196.05,-0.6000000000000014,60.6
202.8,-186.8,11.899999999999999,72.1
211.5,-171.5,3.0500000000000007,60.95
194.65,-182.65,10.600000000000001,65.4
195.65,-175.65,19.95,72.05
200.6,-164.6,8.7,59.3
181.1,-177.1,16.8,67.2
178.75,-170.75,6.199999999999999,57.8
183.95,-155.95,15.3,68.7
183.4,-147.4,14.5,69.5
175.55,-147.55,16.15,71.85
163.1,-155.1,2.4499999999999993,57.55
164.1,-152.1,15.3,68.7
166.4,-150.4,22.55,73.45
170.75,-146.75,13.7,62.3
160.75,-156.75,12.55,59.45
177.2,-137.2,14.850000000000001,61.15
167.6,-139.6,18.7,65.3
153.9,-145.9,16.3,63.7
159.85,-131.85,23.8,72.2
153.05,-133.05,25.6,74.4
156.2,-128.2,7.399999999999999,56.6
158.25,-126.25,23.25,72.75
146.55,-138.55,7.0,57.0
151.9,-131.9,18.75,69.25
149.15,-129.15,22.75,73.25
149.55,-121.55000000000001,25.0,75.0
133.1,-129.1,23.65,72.35
135.45,-119.45,12.55,59.45
126.7,-122.7,25.4,70.6
131.7,-115.7,12.25,55.75
126.95,-118.95,12.95,55.05
135.75,-107.75,17.55,58.45
134.2,-106.2,11.899999999999999,52.1
128.2,-108.2,12.0,52.0
120.95,-112.95,17.7,58.3
136.2,-96.2,13.100000000000001,54.9
134.15,-98.15,20.55,63.45
122.45,-110.45,28.4,71.6
126.0,-106.0,22.8,65.2
134.95,-94.95,29.7,70.3
120.75,-104.75,28.5,67.5
126.05,-94.05,24.65,63.35
126.05,-90.05,21.75,62.25
113.0,-101.0,10.100000000000001,53.9
119.0,-95.0,10.45,57.55
121.3,-93.3,21.75,70.25
109.4,-105.4,12.600000000000001,59.4
114.65,-98.65,16.95,59.05
123.55,-87.55,23.65,60.35
105.9,-101.9,29.7,62.3
106.6,-98.6,26.05,57.95
103.6,-99.6,30.8,65.2
112.85,-88.85,18.45,57.55
113.85,-85.85,18.15,61.85
112.2,-84.2,20.75,67.25
112.35,-80.35,6.600000000000001,53.4
96.35,-92.35,9.350000000000001,54.65
100.75,-84.75,14.5,57.5
95.6,-87.6,19.3,60.7
108.65,-72.65,29.6,70.4
98.15,-82.15,11.399999999999999,52.6
107.5,-71.5,29.2,70.8
90.8,-86.8,17.1,58.9
100.45,-76.45,27.45,68.55
89.75,-85.75,30.0,70.0
93.15,-81.15,20.55,59.45
100.55,-72.55,24.95,63.05
97.75,-73.75,21.35,58.65
104.65,-64.65,23.8,60.2
91.9,-75.9,26.6,61.4
99.55,-67.55,31.75,64.25
91.6,-75.6,35.15,64.85
90.1,-78.1,32.55,59.45
102.4,-66.4,23.6,48.4
86.75,-82.75,22.1,45.9
100.65,-68.65,36.1,59.9
89.5,-77.5,35.7,60.3
98.1,-66.1,31.1,56.9
100.7,-60.7,16.45,43.55
85.75,-73.75,23.75,52.25
91.7,-67.7,29.1,58.9
93.75,-65.75,22.55,53.45
94.1,-66.1,26.25,57.75
86.35,-74.35,14.3,45.7
88.35,-72.35,32.85,63.15
98.05,-62.05,33.8,62.2
83.3,-75.3,20.7,47.3
84.2,-72.2,21.1,46.9
91.1,-63.099999999999994,16.55,43.45
80.35,-72.35,33.05,62.95
89.65,-61.650000000000006,28.95,63.05
87.5,-63.5,16.85,55.15
87.3,-63.3,17.35,58.65
82.75,-66.75,20.9,63.1
92.35,-56.349999999999994,13.55,54.45
91.7,-55.7,28.8,67.2
83.4,-63.400000000000006,32.1,67.9
79.8,-67.8,16.95,51.05
94.65,-54.650000000000006,21.25,54.75
93.75,-57.75,21.0,55.0
86.25,-66.25,30.6,65.4
81.85,-69.85,14.05,49.95
76.45,-72.45,15.600000000000001,52.4
75.2,-71.2,11.149999999999999,48.85
78.65,-66.65,12.8,51.2
93.3,-53.3,30.7,69.3
93.05,-57.05,12.850000000000001,51.15
87.25,-67.25,21.35,58.65
91.05,-67.05,19.8,56.2
89.6,-69.6,23.95,60.05
80.4,-76.4,21.55,58.45
80.2,-72.2,14.649999999999999,53.35
81.9,-65.9,13.649999999999999,54.35
89.05,-57.05,23.1,64.9
79.95,-67.95,27.5,68.5
96.45,-56.45,28.55,67.45
91.35,-67.35,17.9,54.1
88.0,-76.0,28.55,63.45
89.3,-77.3,15.899999999999999,52.1
99.65,-67.65,30.0,70.0
102.85,-62.849999999999994,23.45,68.55
86.3,-78.3,5.300000000000001,54.7
102.1,-62.099999999999994,12.600000000000001,63.4
92.45,-72.45,21.65,70.35
92.45,-72.45,27.95,72.05
92.2,-72.2,16.45,55.55
83.45,-79.45,31.9,68.1
84.8,-76.8,15.8,52.2
98.85,-62.849999999999994,10.25,49.75
95.05,-67.05,22.1,65.9
99.6,-63.599999999999994,20.6,67.4
83.45,-79.45,22.5,69.5
100.05,-60.05,15.7,60.3
79.8,-75.8,9.649999999999999,50.35
83.35,-67.35,17.3,54.7
85.65,-61.650000000000006,22.0,58.0
77.45,-69.45,21.4,58.6
86.5,-62.5,21.8,62.2
81.75,-69.75,21.9,66.1
96.7,-56.7,10.2,57.8
96.35,-56.349999999999994,23.25,72.75
85.0,-65.0,10.95,61.05
83.55,-63.55,5.100000000000001,54.9
78.85,-66.85,15.55,64.45
90.75,-54.75,17.9,66.1
87.65,-59.650000000000006,6.449999999999999,53.55
94.8,-54.8,7.149999999999999,52.85
91.5,-59.5,18.0,62.0
83.6,-67.6,24.65,67.35
88.9,-60.900000000000006,10.899999999999999,53.1
85.6,-61.599999999999994,14.25,57.75
76.45,-68.45,22.95,69.05
90.1,-54.099999999999994,23.15,72.85
88.3,-56.3,13.7,66.3
76.95,-68.95,10.850000000000001,65.15
81.65,-65.65,23.0,77.0
77.95,-69.95,4.0,56.0
91.65,-55.650000000000006,15.25,64.75
74.85,-70.85,14.100000000000001,61.9
92.05,-52.05,16.15,63.85
91.7,-51.7,13.05,62.95
87.6,-55.599999999999994,21.25,74.75
79.8,-63.8,21.6,78.4
75.75,-67.75,14.850000000000001,73.15
83.55,-59.55,7.449999999999999,64.55
73.0,-69.0,16.9,71.1
84.75,-56.75,24.55,75.45
81.1,-61.099999999999994,5.5,54.5
74.1,-70.1,11.5,60.5
87.5,-59.5,24.65,75.35
82.75,-66.75,21.75,74.25
87.5,-63.5,11.149999999999999,64.85
93.65,-57.650000000000006,15.350000000000001,68.65
77.45,-73.45,19.8,72.2
78.85,-70.85,4.0,56.0
78.8,-70.8,23.35,76.65
81.1,-69.1,22.0,78.0
91.55,-59.55,10.8,69.2
83.85,-67.85,12.350000000000001,71.65
91.75,-59.75,19.15,76.85
87.0,-63.0,17.05,70.95
84.35,-64.35,11.350000000000001,60.65
87.75,-59.75,14.899999999999999,61.1
88.05,-60.05,21.1,66.9
88.8,-60.8,6.0,54.0
94.2,-58.2,8.399999999999999,59.6
85.45,-69.45,9.3,62.7
94.2,-62.2,13.350000000000001,66.65
90.1,-66.1,8.45,59.55
93.5,-61.5,10.0,58.0
94.35,-58.349999999999994,27.0,73.0
89.15,-61.150000000000006,12.7,59.3
91.95,-55.95,15.350000000000001,64.65
74.1,-70.1,17.7,70.3
88.1,-52.099999999999994,16.75,71.25
80.6,-56.599999999999994,17.25,70.75
75.95,-59.95,5.0,55.0
80.7,-56.7,17.05,62.95
76.85,-64.85,26.35,69.65
91.65,-55.650000000000006,18.45,61.55
81.9,-69.9,23.1,68.9
94.25,-58.25,21.15,70.85
91.0,-59.0,23.5,76.5
90.35,-54.349999999999994,6.800000000000001,61.2
73.35,-65.35,7.199999999999999,60.8
71.5,-63.5,12.350000000000001,63.65
73.45,-61.45,21.8,70.2
89.25,-49.25,7.0,53.0
82.05,-62.05,21.7,66.3
95.1,-55.099999999999994,13.8,58.2
87.25,-67.25,21.5,66.5
92.25,-64.25,18.85,65.15
80.25,-76.25,16.1,63.9
93.15,-61.150000000000006,15.55,64.45
93.75,-57.75,9.399999999999999,58.6
92.6,-56.599999999999994,23.9,72.1
81.65,-65.65,21.05,66.95
83.85,-63.849999999999994,8.5,51.5
94.7,-54.7,25.8,66.2
89.7,-61.7,24.4,63.6
88.8,-64.8,12.0,52.0
80.75,-72.75,14.850000000000001,57.15
86.15,-66.15,15.350000000000001,60.65
94.9,-54.900000000000006,24.05,71.95
79.95,-67.95,11.3,60.7
89.05,-57.05,21.1,70.9
90.7,-54.7,9.3,58.7
88.15,-56.150000000000006,21.55,70.45
81.75,-61.75,9.55,58.45
91.45,-51.45,13.149999999999999,62.85
87.1,-55.099999999999994,12.600000000000001,63.4
83.2,-59.2,6.0,58.0
84.95,-56.95,3.6499999999999986,56.35
72.2,-68.2,13.7,66.3
84.85,-52.849999999999994,10.149999999999999,61.85
79.25,-55.25,22.75,73.25
80.15,-52.150000000000006,17.25,66.75
82.0,-50.0,19.55,68.45
73.25,-61.25,7.399999999999999,56.6
81.25,-57.25,10.75,61.25
73.35,-69.35,9.8,62.2
76.35,-68.35,22.85,77.15
75.95,-67.95,16.4,71.6
82.25,-58.25,16.8,71.2
78.7,-58.7,24.05,75.95
79.8,-55.8,13.8,62.2
76.1,-60.099999999999994,21.2,66.8
87.45,-51.45,23.5,68.5
81.15,-61.150000000000006,24.25,71.75
84.25,-60.25,23.85,76.15
90.4,-54.400000000000006,17.25,74.75
75.7,-67.7,3.75,64.25
78.7,-62.7,14.25,73.75
83.85,-55.849999999999994,18.85,73.15
79.65,-59.650000000000006,16.7,63.3
89.85,-49.849999999999994,22.3,61.7
86.15,-54.150000000000006,32.35,67.65
88.3,-52.3,28.25,63.75
76.4,-64.4,16.2,55.8
72.15,-68.15,17.3,62.7
86.0,-54.0,16.8,67.2
82.05,-58.05,15.8,68.2
72.55,-68.55,18.25,69.75
72.9,-68.9,7.75,56.25
83.1,-59.099999999999994,7.399999999999999,52.6
80.45,-60.45,8.3,51.7
77.05,-61.05,26.05,69.95
81.1,-53.099999999999994,19.05,64.95
67.0,-63.0,11.8,60.2
67.5,-59.5,20.9,71.1
71.15,-55.15,24.65,75.35
84.3,-44.3,10.850000000000001,61.15
84.4,-48.400000000000006,9.149999999999999,58.85
70.9,-66.9,19.25,68.75
86.8,-54.8,24.9,75.1
79.85,-63.849999999999994,8.399999999999999,59.6
80.05,-64.05,6.199999999999999,57.8
81.55,-61.55,22.6,73.4
76.55,-64.55,25.7,74.3
73.25,-65.25,23.15,68.85
69.8,-65.8,26.5,69.5
82.15,-50.150000000000006,23.15,64.85
72.8,-56.8,24.95,67.05
82.15,-46.150000000000006,20.05,63.95
68.3,-60.3,23.2,68.8
79.25,-51.25,17.1,62.9
84.6,-48.599999999999994,13.95,58.05
75.7,-59.7,25.5,66.5
85.95,-49.95,21.05,58.95
83.35,-51.349999999999994,25.95,62.05
84.0,-48.0,29.95,66.05
73.25,-57.25,17.05,54.95
67.45,-63.45,11.8,52.2
73.15,-61.150000000000006,8.600000000000001,51.4
79.15,-59.150000000000006,13.75,58.25
87.35,-55.349999999999994,7.350000000000001,52.65
90.4,-54.400000000000006,7.350000000000001,52.65
76.65,-68.65,23.8,68.2
75.95,-67.95,16.35,59.65
80.95,-60.95,22.95,65.05
74.35,-66.35,17.25,58.75
84.1,-56.099999999999994,24.85,67.15
78.45,-62.45,17.7,62.3
82.9,-58.900000000000006,21.9,70.1
87.45,-55.45,23.85,76.15
76.05,-68.05,14.399999999999999,69.6
76.3,-68.3,10.0,66.0
90.5,-54.5,18.9,73.1
90.5,-54.5,13.05,62.95
78.25,-66.25,15.399999999999999,60.6
75.85,-67.85,15.05,56.95
83.3,-59.3,25.25,66.75
76.6,-64.6,25.75,70.25
76.45,-64.45,7.149999999999999,56.85
78.7,-62.7,22.6,77.4
89.55,-53.55,5.149999999999999,62.85
90.4,-54.400000000000006,13.5,70.5
82.7,-62.7,9.350000000000001,62.65
78.65,-66.65,25.9,74.1
91.75,-51.75,14.0,58.0
80.85,-60.849999999999994,24.95,67.05
82.1,-58.099999999999994,16.65,59.35
87.55,-51.55,11.75,56.25
82.95,-54.95,23.0,69.0
76.0,-60.0,14.8,61.2
70.7,-62.7,15.3,60.7
71.65,-59.650000000000006,28.0,72.0
69.4,-61.400000000000006,18.4,61.6
81.95,-49.95,26.2,69.8
71.35,-63.349999999999994,15.3,60.7
75.0,-63.0,6.149999999999999,53.85
80.5,-60.5,15.350000000000001,64.65
75.0,-67.0,23.15,72.85
82.85,-58.849999999999994,25.7,74.3
78.05,-62.05,18.45,65.55
84.9,-52.900000000000006,24.9,71.1
73.85,-61.849999999999994,22.55,69.45
72.95,-60.95,11.399999999999999,60.6
82.8,-50.8,23.9,76.1
72.9,-60.900000000000006,8.399999999999999,63.6
83.9,-51.900000000000006,5.550000000000001,62.45
73.2,-65.2,11.100000000000001,68.9
72.85,-68.85,6.850000000000001,65.15
90.2,-54.2,16.5,75.5
86.9,-58.900000000000006,-0.14999999999999858,60.15
74.5,-70.5,-0.6999999999999993,60.7
80.6,-60.599999999999994,9.100000000000001,70.9
78.0,-58.0,15.7,76.3
77.25,-53.25,0.6999999999999993,59.3
81.35,-45.35,3.6999999999999993,60.3
64.6,-60.6,13.7,70.3
79.15,-47.15,18.45,77.55
82.1,-46.099999999999994,10.2,73.8
78.85,-50.849999999999994,2.1000000000000014,69.9
74.6,-54.599999999999994,5.450000000000003,74.55
73.25,-53.25,2.6000000000000014,69.4
73.1,-49.1,19.35,80.65
72.9,-44.9,16.3,71.7
63.35,-51.35,24.2,75.8
60.85,-52.85,16.0,68.0
59.65,-55.65,6.050000000000001,61.95
68.8,-48.8,5.300000000000001,66.7
74.4,-46.4,13.399999999999999,78.6
81.05,-41.05,3.3500000000000014,68.65
78.8,-42.8,1.1499999999999986,62.85
71.85,-47.85,10.100000000000001,65.9
62.8,-54.8,12.649999999999999,63.35
78.25,-38.25,9.600000000000001,58.4
66.5,-50.5,4.600000000000001,55.4
69.5,-49.5,22.0,78.0
62.85,-58.85,15.25,76.75
65.8,-57.8,13.450000000000003,78.55
71.8,-51.8,13.5,78.5
63.3,-59.3,19.15,80.85
64.4,-56.4,3.4499999999999993,60.55
70.35,-50.35,23.2,76.8
63.2,-59.2,9.649999999999999,62.35
67.05,-59.05,6.800000000000001,61.2
67.45,-63.45,9.25,66.75
69.15,-65.15,15.75,76.25
71.75,-63.75,8.899999999999999,71.1
68.95,-64.95,4.75,67.25
79.0,-51.0,19.55,80.45
70.9,-54.9,14.350000000000001,73.65
79.3,-43.3,9.100000000000001,66.9
77.0,-45.0,7.550000000000001,64.45
63.5,-59.5,15.649999999999999,72.35
66.5,-58.5,13.55,70.45
77.2,-49.2,1.3000000000000007,58.7
69.4,-57.4,0.8999999999999986,59.1
70.9,-54.9,14.45,73.55
78.25,-46.25,9.850000000000001,70.15
63.85,-59.85,1.3000000000000007,62.7
67.9,-55.9,5.100000000000001,66.9
76.2,-48.2,11.350000000000001,72.65
68.75,-56.75,2.1999999999999993,61.8
67.0,-59.0,3.3500000000000014,60.65
70.7,-54.7,18.4,73.6
70.25,-54.25,11.0,65.0
75.45,-47.45,4.899999999999999,59.1
69.05,-53.05,5.949999999999999,62.05
75.05,-47.05,12.45,71.55
65.8,-57.8,13.05,74.95
68.95,-56.95,-0.20000000000000284,64.2
68.1,-60.099999999999994,1.2000000000000028,66.8
82.6,-46.599999999999994,8.950000000000003,75.05
78.25,-50.25,0.8999999999999986,67.1
74.95,-50.95,-1.2000000000000028,65.2
74.7,-46.7,-3.1000000000000014,63.1
68.45,-48.45,3.25,68.75
60.9,-52.9,14.149999999999999,77.85
74.75,-38.75,7.399999999999999,68.6
78.2,-38.2,0.8500000000000014,59.15
77.1,-45.1,3.6999999999999993,60.3
82.25,-46.25,21.6,78.4
74.65,-58.650000000000006,16.25,75.75
83.5,-51.5,6.149999999999999,69.85
68.65,-64.65,0.10000000000000142,67.9
70.9,-58.900000000000006,12.799999999999997,83.2
72.85,-52.85,8.649999999999999,79.35
79.4,-43.4,15.5,84.5
80.65,-40.65,2.75,69.25
64.35,-56.35,9.549999999999997,74.45
76.1,-44.1,-0.3500000000000014,64.35
62.15,-58.15,1.0,67.0
80.35,-40.35,8.25,75.75
72.45,-48.45,15.75,84.25
