V1,V2,V3,V4
8.5,7.5,30.0,30.0
20.0,20.0,38.0,38.0
17.44775390625,14.55224609375,47.46484375,48.53515625
18.810791015625,13.189208984375,44.923828125,47.076171875
9.831298828125,2.168701171875,36.75341796875,39.24658203125
16.4287109375,7.5712890625,29.19677734375,30.80322265625
8.58056640625,-0.58056640625,30.23388671875,29.76611328125
20.25,11.75,49.55517578125,46.44482421875
9.4453125,2.5546875,40.6796875,35.3203125
12.33984375,7.66015625,37.1826171875,30.8173828125
13.312255859375,10.687744140625,50.93212890625,45.06787109375
6.805419921875,5.194580078125,52.18212890625,47.81787109375
5.06396484375,2.93603515625,49.46826171875,46.53173828125
11.950927734375,8.049072265625,51.34716796875,48.65283203125
9.00146484375,2.99853515625,38.099609375,33.900390625
9.715087890625,2.284912109375,49.55419921875,42.44580078125
21.860107421875,14.139892578125,43.146484375,32.853515625
23.5693359375,16.4306640625,54.18798828125,41.81201171875
21.185546875,14.814453125,40.21728515625,27.78271484375
11.00927734375,4.99072265625,51.22705078125,40.77294921875
21.14501953125,14.85498046875,45.65185546875,38.34814453125
9.52490234375,2.47509765625,52.14990234375,47.85009765625
22.011962890625,13.988037109375,45.30810546875,42.69189453125
14.47265625,5.52734375,33.41796875,30.58203125
18.787109375,9.212890625,44.36865234375,39.63134765625
22.883544921875,13.116455078125,47.67529296875,40.32470703125
12.813720703125,3.186279296875,52.65380859375,43.34619140625
10.80810546875,1.19189453125,54.693359375,45.306640625
17.17919921875,6.82080078125,47.52978515625,40.47021484375
24.08447265625,11.91552734375,43.3798828125,40.6201171875
11.322509765625,-3.322509765625,32.8564453125,35.1435546875
22.35791015625,5.64208984375,38.70751953125,45.29248046875
10.6015625,-6.6015625,43.51123046875,52.48876953125
19.77734375,4.22265625,43.462890625,52.537109375
14.144287109375,1.855712890625,40.35302734375,47.64697265625
24.428955078125,15.571044921875,29.701171875,34.298828125
5.481201171875,-1.481201171875,46.96484375,49.03515625
21.83447265625,14.16552734375,45.701171875,46.298828125
13.39306640625,2.60693359375,45.64501953125,46.35498046875
27.42529296875,12.57470703125,48.73095703125,51.26904296875
24.885986328125,7.114013671875,33.107421875,38.892578125
12.9296875,-4.9296875,39.193359375,48.806640625
9.368408203125,-5.368408203125,27.7138671875,40.2861328125
22.8359375,13.1640625,27.650390625,40.349609375
8.554443359375,3.445556640625,36.03076171875,43.96923828125
17.791748046875,14.208251953125,33.6025390625,30.3974609375
15.259033203125,8.740966796875,56.52685546875,35.47314453125
24.75244140625,11.24755859375,52.2080078125,7.7919921875
21.246337890625,-1.246337890625,79.3564453125,8.6435546875
19.393798828125,-11.393798828125,82.2578125,-14.2578125
30.15771484375,-6.15771484375,101.19384765625,-17.19384765625
39.233642578125,0.766357421875,98.88818359375,-34.88818359375
25.081787109375,-13.081787109375,116.81982421875,-24.81982421875
30.60986328125,-6.60986328125,113.30712890625,-29.30712890625
24.68115234375,-12.68115234375,117.361328125,-21.361328125
23.684814453125,-15.684814453125,110.3828125,-22.3828125
23.366943359375,-19.366943359375,95.748046875,-31.748046875
39.01220703125,-7.01220703125,108.390625,-16.390625
31.882080078125,-15.882080078125,104.52392578125,-20.52392578125
29.642822265625,-17.642822265625,97.6689453125,-29.6689453125
34.51806640625,-10.51806640625,103.00341796875,-27.00341796875
41.113037109375,-1.113037109375,109.83447265625,-21.83447265625
32.05859375,-8.05859375,99.93408203125,-31.93408203125
39.713623046875,0.286376953125,103.55078125,-27.55078125
22.07666015625,-18.07666015625,103.15625,-27.15625
40.882080078125,-0.882080078125,99.11181640625,-31.11181640625
41.757568359375,-1.757568359375,107.46533203125,-23.46533203125
32.346923828125,-12.346923828125,107.97314453125,-23.97314453125
26.385986328125,-18.385986328125,106.30908203125,-26.30908203125
23.780517578125,-19.780517578125,108.32080078125,-24.32080078125
34.66943359375,-6.66943359375,114.15234375,-18.15234375
21.402587890625,-17.402587890625,98.15380859375,-34.15380859375
22.399169921875,-14.399169921875,106.63427734375,-26.63427734375
27.94384765625,-7.94384765625,97.6220703125,-37.6220703125
28.047607421875,-8.047607421875,118.7919921875,-18.7919921875
36.448974609375,-0.448974609375,99.6201171875,-39.6201171875
36.77685546875,-0.77685546875,99.67431640625,-39.67431640625
38.76513671875,1.23486328125,110.841796875,-26.841796875
30.402587890625,-6.402587890625,101.37548828125,-33.37548828125
35.9169921875,0.0830078125,99.7353515625,-31.7353515625
25.62158203125,-9.62158203125,110.35888671875,-18.35888671875
27.728271484375,-7.728271484375,103.5029296875,-23.5029296875
20.251220703125,-16.251220703125,93.216796875,-33.216796875
23.0361328125,-15.0361328125,111.41650390625,-15.41650390625
37.862548828125,-1.862548828125,107.9677734375,-19.9677734375
36.5419921875,-4.5419921875,114.72509765625,-14.72509765625
22.982177734375,-18.982177734375,97.5283203125,-33.5283203125
39.177001953125,-3.177001953125,106.20361328125,-26.20361328125
25.13720703125,-17.13720703125,116.59912109375,-16.59912109375
32.813232421875,-8.813232421875,108.63427734375,-24.63427734375
38.12060546875,-2.12060546875,108.32568359375,-24.32568359375
39.07861328125,0.92138671875,97.78662109375,-33.78662109375
23.95166015625,-11.95166015625,107.1806640625,-23.1806640625
31.24462890625,-3.24462890625,100.6630859375,-28.6630859375
37.49560546875,2.50439453125,112.3427734375,-16.3427734375
36.95849609375,-0.95849609375,110.2705078125,-18.2705078125
31.3642578125,-11.3642578125,112.4296875,-16.4296875
43.9423828125,-3.9423828125,112.74169921875,-16.74169921875
27.724609375,-23.724609375,111.0712890625,-19.0712890625
33.979736328125,-17.979736328125,105.28271484375,-25.28271484375
30.544677734375,-18.544677734375,113.31787109375,-17.31787109375
37.912841796875,-5.912841796875,99.2353515625,-31.2353515625
27.061279296875,-11.061279296875,99.17431640625,-31.17431640625
25.07861328125,-9.07861328125,105.255859375,-25.255859375
22.70361328125,-10.70361328125,115.4951171875,-15.4951171875
37.984619140625,2.015380859375,99.7724609375,-31.7724609375
22.2490234375,-18.2490234375,99.896484375,-31.896484375
38.435302734375,-6.435302734375,103.724609375,-27.724609375
35.59521484375,-11.59521484375,105.2568359375,-25.2568359375
33.31591796875,-13.31591796875,96.65966796875,-32.65966796875
31.8603515625,-11.8603515625,106.1767578125,-22.1767578125
27.98876953125,-11.98876953125,111.97998046875,-15.97998046875
36.556884765625,-0.556884765625,94.06982421875,-34.06982421875
30.09326171875,-6.09326171875,104.2734375,-24.2734375
32.570556640625,-4.570556640625,114.357421875,-14.357421875
35.491455078125,-3.491455078125,112.1494140625,-16.1494140625
30.208251953125,-10.208251953125,93.61962890625,-33.61962890625
34.29833984375,-6.29833984375,110.880859375,-14.880859375
37.78173828125,-1.78173828125,94.1201171875,-30.1201171875
39.073486328125,0.926513671875,103.53271484375,-19.53271484375
26.7197265625,-10.7197265625,93.25341796875,-29.25341796875
21.06884765625,-17.06884765625,95.30908203125,-27.30908203125
32.055908203125,-8.055908203125,103.6083984375,-19.6083984375
29.229248046875,-13.229248046875,107.98828125,-15.98828125
24.020263671875,-20.020263671875,112.30419921875,-12.30419921875
36.096435546875,-8.096435546875,112.4990234375,-12.4990234375
37.567626953125,-5.567626953125,102.609375,-22.609375
38.9130859375,-2.9130859375,98.7041015625,-26.7041015625
36.687744140625,-4.687744140625,112.81396484375,-12.81396484375
25.208251953125,-17.208251953125,92.9013671875,-32.9013671875
34.39013671875,-10.39013671875,104.908203125,-20.908203125
29.80615234375,-17.80615234375,108.85009765625,-16.85009765625
36.920166015625,-12.920166015625,106.8828125,-18.8828125
33.368896484375,-17.368896484375,101.2724609375,-25.2724609375
27.142578125,-23.142578125,112.240234375,-16.240234375
28.58203125,-20.58203125,101.78955078125,-29.78955078125
38.2001953125,-10.2001953125,115.6044921875,-19.6044921875
30.4208984375,-18.4208984375,117.14306640625,-21.14306640625
41.350830078125,-9.350830078125,101.85595703125,-37.85595703125
36.713134765625,-16.713134765625,117.4306640625,-21.4306640625
31.99365234375,-23.99365234375,99.95458984375,-35.95458984375
42.70361328125,-14.70361328125,101.9013671875,-29.9013671875
42.590087890625,-14.590087890625,103.97314453125,-23.97314453125
39.698974609375,-15.698974609375,92.83837890625,-32.83837890625
40.32080078125,-12.32080078125,94.8837890625,-30.8837890625
44.875244140625,-4.875244140625,112.07666015625,-16.07666015625
37.77490234375,-9.77490234375,101.982421875,-29.982421875
35.312255859375,-11.312255859375,99.94287109375,-35.94287109375
31.602294921875,-15.602294921875,115.32861328125,-23.32861328125
32.541259765625,-16.541259765625,117.76318359375,-21.76318359375
45.792724609375,-5.792724609375,103.21630859375,-35.21630859375
32.85009765625,-20.85009765625,111.95654296875,-23.95654296875
31.23046875,-23.23046875,112.408203125,-20.408203125
42.71240234375,-10.71240234375,102.9951171875,-26.9951171875
45.459716796875,-5.459716796875,94.02587890625,-34.02587890625
41.940185546875,-5.940185546875,113.64111328125,-13.64111328125
24.705078125,-20.705078125,111.8232421875,-15.8232421875
38.1826171875,-6.1826171875,114.419921875,-14.419921875
32.564453125,-12.564453125,95.2001953125,-35.2001953125
35.77490234375,-11.77490234375,107.9326171875,-23.9326171875
45.48193359375,-5.48193359375,98.46923828125,-34.46923828125
31.168212890625,-23.168212890625,96.76416015625,-36.76416015625
30.29345703125,-26.29345703125,98.81640625,-34.81640625
38.515380859375,-18.515380859375,110.60888671875,-22.60888671875
45.848388671875,-9.848388671875,100.1123046875,-32.1123046875
28.6630859375,-24.6630859375,103.3505859375,-27.3505859375
37.523681640625,-13.523681640625,108.48779296875,-20.48779296875
30.95703125,-18.95703125,101.82568359375,-25.82568359375
31.236083984375,-19.236083984375,93.69091796875,-33.69091796875
30.257080078125,-22.257080078125,98.23828125,-30.23828125
39.572998046875,-15.572998046875,107.30859375,-23.30859375
44.608154296875,-12.608154296875,114.46435546875,-18.46435546875
38.94140625,-18.94140625,107.2216796875,-27.2216796875
48.50537109375,-8.50537109375,103.3310546875,-31.3310546875
41.593994140625,-13.593994140625,108.89453125,-24.89453125
36.69580078125,-16.69580078125,100.25537109375,-32.25537109375
40.234375,-12.234375,99.740234375,-31.740234375
42.333251953125,-10.333251953125,95.453125,-35.453125
28.7314453125,-24.7314453125,111.26611328125,-19.26611328125
40.939697265625,-12.939697265625,98.9755859375,-30.9755859375
36.5810546875,-16.5810546875,114.51025390625,-14.51025390625
45.669921875,-5.669921875,100.015625,-28.015625
40.60986328125,-8.60986328125,101.78125,-25.78125
33.925537109375,-13.925537109375,94.07958984375,-34.07958984375
25.955078125,-21.955078125,105.0107421875,-25.0107421875
30.68212890625,-18.68212890625,104.44091796875,-28.44091796875
31.73046875,-19.73046875,100.04345703125,-36.04345703125
32.495361328125,-20.495361328125,113.42431640625,-25.42431640625
38.381103515625,-14.381103515625,120.25732421875,-20.25732421875
35.09814453125,-15.09814453125,100.38671875,-40.38671875
42.87939453125,-2.87939453125,117.86474609375,-21.86474609375
36.47021484375,-4.47021484375,114.9072265625,-22.9072265625
36.833251953125,-0.833251953125,97.791015625,-37.791015625
34.698486328125,-2.698486328125,106.7470703125,-26.7470703125
36.18994140625,-4.18994140625,101.90185546875,-29.90185546875
30.76025390625,-14.76025390625,109.2900390625,-21.2900390625
27.46435546875,-23.46435546875,96.908203125,-32.908203125
37.384765625,-17.384765625,100.7568359375,-28.7568359375
43.979736328125,-11.979736328125,98.82763671875,-30.82763671875
41.203369140625,-13.203369140625,95.07373046875,-35.07373046875
35.423095703125,-15.423095703125,101.404296875,-29.404296875
29.244873046875,-17.244873046875,115.71142578125,-15.71142578125
41.367919921875,-1.367919921875,109.9052734375,-21.9052734375
26.45166015625,-14.45166015625,103.93359375,-27.93359375
40.930908203125,-0.930908203125,115.7724609375,-15.7724609375
26.79150390625,-18.79150390625,101.42041015625,-29.42041015625
31.46826171875,-19.46826171875,104.91845703125,-24.91845703125
44.021240234375,-12.021240234375,104.38330078125,-24.38330078125
45.541748046875,-13.541748046875,112.00244140625,-16.00244140625
47.551025390625,-11.551025390625,107.98095703125,-19.98095703125
40.177734375,-16.177734375,102.45703125,-26.45703125
28.05322265625,-24.05322265625,99.44482421875,-31.44482421875
34.017822265625,-14.017822265625,104.8203125,-28.8203125
24.7841796875,-20.7841796875,104.34912109375,-32.34912109375
26.694580078125,-18.694580078125,111.72265625,-27.72265625
31.63134765625,-15.63134765625,118.60546875,-22.60546875
41.09814453125,-9.09814453125,118.73486328125,-22.73486328125
42.44287109375,-10.44287109375,114.03369140625,-26.03369140625
29.154052734375,-25.154052734375,116.70263671875,-20.70263671875
39.093505859375,-15.093505859375,103.1884765625,-31.1884765625
46.5302734375,-6.5302734375,116.02685546875,-16.02685546875
43.937744140625,-7.937744140625,105.61865234375,-25.61865234375
33.68701171875,-17.68701171875,106.06787109375,-26.06787109375
43.844970703125,-7.844970703125,117.1494140625,-17.1494140625
38.2060546875,-14.2060546875,110.42236328125,-26.42236328125
30.49755859375,-22.49755859375,101.41162109375,-37.41162109375
30.588134765625,-22.588134765625,111.794921875,-27.794921875
38.5517578125,-14.5517578125,101.4931640625,-37.4931640625
36.555419921875,-16.555419921875,106.6650390625,-30.6650390625
30.66943359375,-22.66943359375,115.62109375,-19.62109375
46.755615234375,-6.755615234375,112.7080078125,-20.7080078125
38.5419921875,-14.5419921875,102.19677734375,-30.19677734375
45.82958984375,-5.82958984375,100.20556640625,-32.20556640625
26.67626953125,-22.67626953125,100.6796875,-32.6796875
29.436279296875,-17.436279296875,113.42138671875,-21.42138671875
32.5947265625,-12.5947265625,102.1572265625,-34.1572265625
26.476806640625,-18.476806640625,118.625,-18.625
32.99951171875,-12.99951171875,110.6787109375,-26.6787109375
33.6650390625,-13.6650390625,114.3466796875,-22.3466796875
35.8310546875,-11.8310546875,109.82080078125,-25.82080078125
39.100341796875,-7.100341796875,101.369140625,-33.369140625
35.591796875,-7.591796875,103.22998046875,-31.22998046875
33.918212890625,-5.918212890625,107.5322265625,-27.5322265625
32.88525390625,-4.88525390625,112.240234375,-24.240234375
25.06298828125,-13.06298828125,101.1533203125,-37.1533203125
36.465087890625,-4.465087890625,101.9560546875,-37.9560546875
26.522216796875,-18.522216796875,104.31884765625,-36.31884765625
38.3642578125,-10.3642578125,114.025390625,-26.025390625
43.235595703125,-7.235595703125,99.0859375,-39.0859375
30.812744140625,-18.812744140625,111.7744140625,-23.7744140625
31.289794921875,-15.289794921875,102.55419921875,-30.55419921875
35.24169921875,-7.24169921875,99.90185546875,-31.90185546875
25.36572265625,-13.36572265625,102.09033203125,-30.09033203125
36.205322265625,-0.205322265625,111.04931640625,-23.04931640625
27.96044921875,-7.96044921875,106.376953125,-30.376953125
26.4404296875,-10.4404296875,105.50146484375,-33.50146484375
35.175537109375,-3.175537109375,109.92822265625,-29.92822265625
33.6494140625,-5.6494140625,101.4443359375,-37.4443359375
35.568603515625,-3.568603515625,98.1884765625,-38.1884765625
27.009765625,-11.009765625,96.5771484375,-36.5771484375
30.344482421875,-6.344482421875,107.12451171875,-23.12451171875
28.001708984375,-8.001708984375,96.23681640625,-32.23681640625
36.209716796875,-0.209716796875,102.0498046875,-26.0498046875
24.861572265625,-12.861572265625,108.39404296875,-20.39404296875
35.5498046875,-3.5498046875,108.93359375,-20.93359375
37.7666015625,-1.7666015625,105.390625,-25.390625
37.20361328125,-1.20361328125,109.71533203125,-21.71533203125
21.98876953125,-13.98876953125,98.068359375,-34.068359375
32.693115234375,-0.693115234375,102.6337890625,-30.6337890625
28.05712890625,-4.05712890625,107.40869140625,-27.40869140625
18.5966796875,-14.5966796875,102.12646484375,-34.12646484375
24.314208984375,-12.314208984375,108.38916015625,-28.38916015625
36.665771484375,-4.665771484375,107.92333984375,-27.92333984375
34.7744140625,-10.7744140625,104.80712890625,-28.80712890625
41.789306640625,-5.789306640625,109.48974609375,-21.48974609375
41.247802734375,-5.247802734375,108.58056640625,-20.58056640625
27.296875,-15.296875,94.5322265625,-34.5322265625
36.655517578125,-0.655517578125,97.4072265625,-33.4072265625
32.3408203125,-0.3408203125,104.85302734375,-28.85302734375
31.26025390625,0.73974609375,118.283203125,-18.283203125
35.85400390625,4.14599609375,99.14990234375,-39.14990234375
21.9072265625,-13.9072265625,105.20068359375,-33.20068359375
24.586669921875,-16.586669921875,98.60009765625,-38.60009765625
40.735107421875,-4.735107421875,99.861328125,-35.861328125
41.35400390625,-5.35400390625,109.58203125,-25.58203125
24.076416015625,-20.076416015625,116.1220703125,-20.1220703125
33.3720703125,-5.3720703125,111.39794921875,-27.39794921875
26.34912109375,-6.34912109375,108.9638671875,-32.9638671875
24.229736328125,-4.229736328125,122.3046875,-22.3046875
19.75537109375,-7.75537109375,121.1142578125,-25.1142578125
22.831298828125,-6.831298828125,103.31787109375,-43.31787109375
32.601806640625,-0.601806640625,116.7880859375,-28.7880859375
23.9384765625,-11.9384765625,101.03271484375,-41.03271484375
22.073486328125,-14.073486328125,103.16357421875,-31.16357421875
19.044677734375,-15.044677734375,108.27587890625,-12.27587890625
21.677734375,-9.677734375,94.05712890625,-6.05712890625
35.0986328125,4.9013671875,77.2421875,2.7578125
20.059326171875,-12.059326171875,65.59375,18.40625
34.5029296875,-2.5029296875,51.34765625,28.65234375
41.638671875,-1.638671875,52.3779296875,47.6220703125
40.4404296875,-8.4404296875,35.53759765625,40.46240234375
32.22216796875,-20.22216796875,34.4794921875,41.5205078125
28.950439453125,-24.950439453125,45.97119140625,50.02880859375
35.137939453125,-19.137939453125,38.4560546875,37.5439453125
41.42919921875,-13.42919921875,32.59375,27.40625
36.169189453125,-20.169189453125,41.62841796875,34.37158203125
31.239990234375,-27.239990234375,37.51318359375,30.48681640625
32.246337890625,-28.246337890625,38.77197265625,33.22802734375
50.866943359375,-10.866943359375,32.12744140625,27.87255859375
43.08935546875,-19.08935546875,48.09521484375,43.90478515625
51.184326171875,-11.184326171875,48.74853515625,43.25146484375
39.479248046875,-23.479248046875,39.7548828125,32.2451171875
44.131103515625,-20.131103515625,40.62060546875,31.37939453125
47.029296875,-19.029296875,48.95166015625,39.04833984375
37.86279296875,-29.86279296875,40.6083984375,31.3916015625
48.272216796875,-20.272216796875,37.72900390625,30.27099609375
40.006591796875,-28.006591796875,44.64306640625,39.35693359375
47.041748046875,-19.041748046875,33.728515625,30.271484375
41.62451171875,-21.62451171875,35.26953125,32.73046875
48.190673828125,-12.190673828125,45.380859375,42.619140625
31.158935546875,-27.158935546875,43.99658203125,40.00341796875
48.71875,-8.71875,48.904296875,43.095703125
32.76513671875,-24.76513671875,43.78173828125,36.21826171875
31.030029296875,-27.030029296875,44.28662109375,35.71337890625
43.28173828125,-15.28173828125,36.1787109375,27.8212890625
35.45654296875,-23.45654296875,49.43896484375,42.56103515625
41.62841796875,-17.62841796875,46.28955078125,41.71044921875
45.869140625,-13.869140625,49.1025390625,46.8974609375
40.101806640625,-20.101806640625,44.2470703125,43.7529296875
36.0869140625,-24.0869140625,49.94140625,50.05859375
31.56494140625,-27.56494140625,36.18408203125,35.81591796875
34.464111328125,-22.464111328125,48.76171875,47.23828125
42.9873046875,-10.9873046875,39.3583984375,36.6416015625
43.509521484375,-7.509521484375,31.69091796875,28.30908203125
40.3740234375,-8.3740234375,41.63427734375,38.36572265625
25.76220703125,-21.76220703125,47.26171875,44.73828125
39.69482421875,-7.69482421875,50.77783203125,49.22216796875
44.0927734375,-4.0927734375,32.39697265625,31.60302734375
44.791015625,-4.791015625,36.24072265625,35.75927734375
43.52099609375,-7.52099609375,32.2998046875,31.7001953125
35.95751953125,-15.95751953125,50.45947265625,49.54052734375
39.858154296875,-11.858154296875,48.5703125,47.4296875
31.2158203125,-19.2158203125,38.5302734375,37.4697265625
44.2919921875,-4.2919921875,38.3447265625,37.6552734375
33.50537109375,-13.50537109375,38.115234375,37.884765625
41.221435546875,-5.221435546875,37.958984375,38.041015625
41.556396484375,-5.556396484375,39.94091796875,40.05908203125
42.284423828125,-6.284423828125,42.0546875,41.9453125
36.90380859375,-12.90380859375,50.2626953125,49.7373046875
40.85400390625,-8.85400390625,32.5185546875,31.4814453125
25.806884765625,-21.806884765625,46.759765625,45.240234375
41.8720703125,-1.8720703125,36.8876953125,35.1123046875
25.607666015625,-13.607666015625,38.79833984375,37.20166015625
23.781005859375,-11.781005859375,36.4501953125,35.5498046875
18.975341796875,-14.975341796875,29.95849609375,30.04150390625
35.243408203125,0.756591796875,45.60302734375,46.39697265625
32.04931640625,-4.04931640625,45.72021484375,46.27978515625
22.56689453125,-14.56689453125,38.5107421875,37.4892578125
20.167724609375,-16.167724609375,31.89599609375,28.10400390625
32.810546875,-0.810546875,33.49853515625,26.50146484375
29.08740234375,-1.08740234375,50.78173828125,41.21826171875
17.865966796875,-9.865966796875,39.28076171875,28.71923828125
27.703857421875,0.296142578125,34.82421875,25.17578125
22.408935546875,-6.408935546875,49.64501953125,42.35498046875
33.095703125,2.904296875,44.29345703125,39.70654296875
16.744873046875,-12.744873046875,37.365234375,34.634765625
16.894775390625,-8.894775390625,39.1865234375,36.8134765625
12.00439453125,-8.00439453125,35.62109375,32.37890625
17.280029296875,2.719970703125,44.15771484375,39.84228515625
8.068115234375,-4.068115234375,42.24072265625,37.75927734375
11.125732421875,-3.125732421875,43.63525390625,40.36474609375
18.143798828125,-2.143798828125,50.5869140625,49.4130859375
15.81982421875,-11.81982421875,47.662109375,48.337890625
32.489990234375,-0.489990234375,29.3916015625,30.6083984375
28.98583984375,-4.98583984375,43.95751953125,44.04248046875
31.22509765625,0.77490234375,33.0966796875,30.9033203125
20.203857421875,-4.203857421875,40.27978515625,35.72021484375
21.4345703125,2.5654296875,32.9814453125,27.0185546875
28.156005859375,11.843994140625,48.890625,43.109375
20.724853515625,3.275146484375,51.98974609375,48.01025390625
28.493896484375,7.506103515625,44.52734375,43.47265625
24.227783203125,-0.227783203125,38.9326171875,41.0673828125
14.789794921875,-10.789794921875,37.689453125,42.310546875
21.71630859375,-1.71630859375,31.17041015625,36.82958984375
11.402587890625,-7.402587890625,45.466796875,50.533203125
20.83740234375,7.16259765625,30.3271484375,33.6728515625
7.052001953125,-3.052001953125,49.2685546875,50.7314453125
8.59228515625,-0.59228515625,39.826171875,40.173828125
19.302490234375,8.697509765625,43.78662109375,44.21337890625
26.5185546875,13.4814453125,45.25830078125,46.74169921875
19.496826171875,4.503173828125,38.5546875,41.4453125
13.81005859375,-1.81005859375,33.99267578125,38.00732421875
11.500732421875,-3.500732421875,35.72216796875,40.27783203125
24.970947265625,11.029052734375,29.64990234375,34.35009765625
8.709228515625,-4.709228515625,33.49853515625,38.50146484375
19.01123046875,4.98876953125,34.97509765625,41.02490234375
9.832275390625,-5.832275390625,29.9638671875,38.0361328125
10.853515625,-6.853515625,42.6474609375,53.3525390625
13.72607421875,-5.72607421875,43.4619140625,56.5380859375
26.314697265625,5.685302734375,42.8935546875,57.1064453125
24.736328125,3.263671875,33.21240234375,46.78759765625
29.1796875,6.8203125,26.3056640625,37.6943359375
27.698486328125,4.301513671875,35.72705078125,44.27294921875
18.16943359375,-6.16943359375,36.9140625,43.0859375
24.41552734375,-0.41552734375,31.46142578125,36.53857421875
26.342041015625,1.657958984375,31.2900390625,36.7099609375
25.999267578125,2.000732421875,46.64599609375,53.35400390625
29.564453125,6.435546875,31.96533203125,40.03466796875
13.266845703125,-9.266845703125,37.671875,46.328125
23.3076171875,0.6923828125,46.00439453125,53.99560546875
17.78564453125,-5.78564453125,34.92236328125,41.07763671875
24.654052734375,-0.654052734375,46.12744140625,49.87255859375
27.7080078125,0.2919921875,35.2021484375,36.7978515625
22.626953125,-6.626953125,33.79638671875,34.20361328125
27.07177734375,-3.07177734375,37.77587890625,38.22412109375
32.80224609375,3.19775390625,29.25048828125,30.74951171875
21.76806640625,-5.76806640625,30.47802734375,33.52197265625
20.14990234375,-4.14990234375,31.71142578125,36.28857421875
18.335205078125,-2.335205078125,27.09130859375,32.90869140625
14.810302734375,-2.810302734375,32.64404296875,39.35595703125
13.980712890625,-1.980712890625,46.34716796875,53.65283203125
26.008544921875,9.991455078125,46.193359375,53.806640625
28.76611328125,11.23388671875,28.18701171875,35.81298828125
13.925537109375,-5.925537109375,44.32470703125,51.67529296875
21.1181640625,-1.1181640625,38.591796875,45.408203125
20.082275390625,-4.082275390625,40.97216796875,47.02783203125
14.72802734375,-10.72802734375,27.4287109375,32.5712890625
29.10302734375,2.89697265625,35.85498046875,40.14501953125
33.29443359375,6.70556640625,32.0517578125,35.9482421875
25.345458984375,-1.345458984375,33.82666015625,38.17333984375
31.235595703125,4.764404296875,27.1533203125,32.8466796875
28.932373046875,3.067626953125,30.25341796875,37.74658203125
28.459228515625,3.540771484375,29.51806640625,38.48193359375
31.928466796875,8.071533203125,27.2939453125,36.7060546875
21.51123046875,-1.51123046875,43.69140625,52.30859375
17.373046875,-5.373046875,36.52978515625,43.47021484375
17.588134765625,-5.588134765625,35.45166015625,40.54833984375
18.067138671875,-6.067138671875,42.1181640625,45.8818359375
32.52685546875,7.47314453125,30.34912109375,33.65087890625
16.558349609375,-8.558349609375,48.17333984375,51.82666015625
19.819580078125,-3.819580078125,45.76953125,50.23046875
22.275146484375,1.724853515625,31.3662109375,36.6337890625
22.335205078125,5.664794921875,31.15283203125,36.84716796875
24.732177734375,11.267822265625,45.22607421875,50.77392578125
22.13232421875,9.86767578125,45.5595703125,50.4404296875
24.70361328125,11.29638671875,43.99462890625,48.00537109375
27.94189453125,12.05810546875,40.2880859375,43.7119140625
24.92724609375,7.07275390625,42.22802734375,45.77197265625
22.849609375,5.150390625,37.77099609375,42.22900390625
13.468017578125,-1.468017578125,31.1005859375,36.8994140625
19.234375,8.765625,30.55029296875,37.44970703125
19.024169921875,12.975830078125,30.4267578125,37.5732421875
13.64990234375,10.35009765625,40.84716796875,47.15283203125
7.4326171875,4.5673828125,27.66650390625,32.33349609375
10.071533203125,5.928466796875,42.525390625,45.474609375
4.88037109375,-0.88037109375,29.0068359375,30.9931640625
23.2197265625,16.7802734375,40.830078125,43.169921875
10.845458984375,5.154541015625,37.98046875,42.01953125
7.981201171875,4.018798828125,30.72119140625,37.27880859375
9.106201171875,6.893798828125,35.46484375,44.53515625
4.62451171875,3.37548828125,26.5947265625,37.4052734375
4.61962890625,3.38037109375,36.328125,47.671875
4.8525390625,3.1474609375,32.6953125,43.3046875
2.989990234375,1.010009765625,27.5771484375,36.4228515625
4.874755859375,3.125244140625,36.77587890625,43.22412109375
6.61279296875,5.38720703125,46.0419921875,49.9580078125
12.4091796875,11.5908203125,31.1337890625,32.8662109375
14.34765625,13.65234375,37.865234375,38.134765625
12.3310546875,11.6689453125,32.15478515625,31.84521484375
8.2265625,7.7734375,30.05029296875,29.94970703125
6.059326171875,5.940673828125,45.69921875,46.30078125
10.07275390625,9.92724609375,37.28955078125,38.71044921875
20.569580078125,19.430419921875,28.96240234375,31.03759765625
15.65966796875,12.34033203125,28.771484375,31.228515625
19.1142578125,12.8857421875,44.69775390625,47.30224609375
22.44775390625,13.55224609375,32.7001953125,35.2998046875
17.16748046875,6.83251953125,36.74365234375,39.25634765625
11.033447265625,0.966552734375,38.79150390625,41.20849609375
24.193603515625,15.806396484375,38.7900390625,41.2099609375
21.126708984375,14.873291015625,40.67236328125,43.32763671875
14.40625,9.59375,42.39697265625,45.60302734375
4.419189453125,-0.419189453125,40.001953125,43.998046875
15.194091796875,8.805908203125,43.62353515625,48.37646484375
10.416015625,1.583984375,43.46923828125,48.53076171875
19.581298828125,8.418701171875,29.74755859375,34.25244140625
10.193359375,-2.193359375,38.55908203125,41.44091796875
7.9609375,-3.9609375,43.80859375,44.19140625
6.943603515625,-2.943603515625,45.1611328125,42.8388671875
21.584716796875,14.415283203125,42.1142578125,37.8857421875
12.56298828125,7.43701171875,48.1865234375,43.8134765625
6.493408203125,1.506591796875,37.1513671875,34.8486328125
17.60107421875,10.39892578125,49.20556640625,50.79443359375
9.53955078125,-1.53955078125,34.9677734375,41.0322265625
9.4775390625,-5.4775390625,35.27685546875,44.72314453125
20.460205078125,3.539794921875,44.82666015625,55.17333984375
21.89208984375,6.10791015625,33.814453125,42.185546875
15.8828125,4.1171875,47.8037109375,52.1962890625
9.261474609375,2.738525390625,39.9052734375,40.0947265625
5.215087890625,2.784912109375,31.1865234375,28.8134765625
20.704345703125,19.295654296875,33.0908203125,30.9091796875
5.977294921875,2.022705078125,35.65234375,36.34765625
22.452392578125,13.547607421875,33.43310546875,38.56689453125
11.025146484375,-3.025146484375,37.2392578125,46.7607421875
18.6044921875,1.3955078125,25.78857421875,38.21142578125
28.585693359375,11.414306640625,25.48291015625,38.51708984375
17.058349609375,2.941650390625,24.33544921875,35.66455078125
10.707763671875,1.292236328125,42.03369140625,49.96630859375
20.48486328125,15.51513671875,38.04443359375,41.95556640625
9.205322265625,6.794677734375,33.75048828125,34.24951171875
7.21826171875,4.78173828125,30.6044921875,29.3955078125
14.279052734375,9.720947265625,36.30908203125,35.69091796875
7.6943359375,0.3056640625,32.97021484375,35.02978515625
20.691650390625,11.308349609375,39.12646484375,44.87353515625
24.82421875,15.17578125,29.58154296875,38.41845703125
8.16748046875,-0.16748046875,45.06689453125,54.93310546875
11.20556640625,4.79443359375,27.8779296875,36.1220703125
10.507080078125,5.492919921875,29.68212890625,34.31787109375
12.433349609375,7.566650390625,43.6533203125,44.3466796875
17.015380859375,10.984619140625,40.8642578125,39.1357421875
18.009033203125,9.990966796875,48.751953125,47.248046875
21.02392578125,10.97607421875,35.3779296875,36.6220703125
23.676025390625,12.323974609375,27.38330078125,32.61669921875
23.7216796875,12.2783203125,29.6591796875,38.3408203125
19.1494140625,8.8505859375,32.9287109375,43.0712890625
6.17822265625,-2.17822265625,25.41748046875,34.58251953125
21.1640625,14.8359375,32.7919921875,39.2080078125
10.43701171875,5.56298828125,32.37890625,35.62109375
4.140380859375,-0.140380859375,45.51025390625,46.48974609375
4.144775390625,-0.144775390625,35.81884765625,36.18115234375
6.117431640625,1.882568359375,47.34521484375,48.65478515625
17.763916015625,14.236083984375,28.44384765625,31.55615234375
19.080078125,16.919921875,47.58251953125,52.41748046875
14.43310546875,13.56689453125,37.13916015625,42.86083984375
12.37890625,11.62109375,27.27294921875,32.72705078125
19.318115234375,16.681884765625,47.9189453125,52.0810546875
17.193603515625,10.806396484375,40.8701171875,43.1298828125
23.421142578125,12.578857421875,41.85888671875,42.14111328125
27.114990234375,12.885009765625,50.61767578125,49.38232421875
27.53466796875,12.46533203125,34.9169921875,33.0830078125
14.50537109375,1.49462890625,34.63427734375,33.36572265625
20.559326171875,11.440673828125,47.83349609375,48.16650390625
20.68994140625,15.31005859375,42.78857421875,45.21142578125
7.830322265625,4.169677734375,29.90185546875,34.09814453125
12.35205078125,7.64794921875,39.53515625,44.46484375
23.8623046875,16.1376953125,39.85498046875,44.14501953125
7.453369140625,-3.453369140625,40.75341796875,43.24658203125
16.244873046875,3.755126953125,33.8662109375,34.1337890625
23.8701171875,12.1298828125,44.6962890625,43.3037109375
24.595947265625,15.404052734375,48.8056640625,47.1943359375
5.077392578125,-1.077392578125,36.0146484375,35.9853515625
13.96533203125,10.03466796875,42.4990234375,45.5009765625
17.622802734375,14.377197265625,32.75244140625,39.24755859375
10.05517578125,5.94482421875,31.40869140625,40.59130859375
9.019775390625,2.980224609375,26.9951171875,37.0048828125
20.2265625,11.7734375,27.6865234375,36.3134765625
17.500732421875,6.499267578125,41.19873046875,46.80126953125
20.823486328125,7.176513671875,32.8876953125,35.1123046875
10.2197265625,-6.2197265625,46.06201171875,45.93798828125
29.6005859375,10.3994140625,48.32958984375,47.67041015625
24.708984375,3.291015625,31.78955078125,32.21044921875
23.230224609375,0.769775390625,34.95458984375,37.04541015625
30.99658203125,9.00341796875,40.431640625,43.568359375
22.131103515625,1.868896484375,44.56982421875,47.43017578125
19.02783203125,0.97216796875,45.28515625,46.71484375
28.164794921875,11.835205078125,48.1494140625,47.8505859375
23.843017578125,8.156982421875,44.693359375,43.306640625
18.016845703125,1.983154296875,48.697265625,47.302734375
10.337158203125,-6.337158203125,38.2958984375,37.7041015625
12.361572265625,-4.361572265625,43.8544921875,44.1455078125
15.79443359375,0.20556640625,43.72607421875,44.27392578125
12.618408203125,-0.618408203125,48.07958984375,47.92041015625
15.105224609375,4.894775390625,40.86865234375,39.13134765625
15.718994140625,8.281005859375,47.884765625,44.115234375
16.94921875,11.05078125,40.80859375,35.19140625
15.10546875,8.89453125,47.2734375,40.7265625
6.177001953125,-2.177001953125,48.9853515625,43.0146484375
17.834228515625,6.165771484375,49.90771484375,46.09228515625
23.58984375,8.41015625,30.376953125,29.623046875
27.05859375,8.94140625,41.02587890625,42.97412109375
28.18896484375,7.81103515625,30.49267578125,33.50732421875
25.30419921875,2.69580078125,33.060546875,34.939453125
22.918212890625,-2.918212890625,46.4697265625,45.5302734375
31.453857421875,0.546142578125,52.05224609375,47.94775390625
37.07373046875,-1.07373046875,33.11962890625,26.88037109375
39.69580078125,-7.69580078125,51.3369140625,44.6630859375
33.0869140625,-25.0869140625,40.85498046875,35.14501953125
36.912109375,-32.912109375,50.14453125,45.85546875
48.68212890625,-32.68212890625,43.66748046875,40.33251953125
53.730712890625,-37.730712890625,45.5888671875,42.4111328125
67.351318359375,-31.351318359375,37.70556640625,34.29443359375
61.10888671875,-41.10888671875,37.62158203125,34.37841796875
59.141845703125,-43.141845703125,47.05615234375,44.94384765625
68.19921875,-32.19921875,44.07177734375,43.92822265625
63.3115234375,-35.3115234375,35.07080078125,36.92919921875
63.239501953125,-35.239501953125,36.55517578125,39.44482421875
56.038330078125,-44.038330078125,46.80029296875,49.19970703125
71.013427734375,-31.013427734375,49.6455078125,50.3544921875
67.126953125,-35.126953125,50.541015625,49.458984375
67.62548828125,-31.62548828125,46.8515625,45.1484375
66.502197265625,-26.502197265625,32.21923828125,31.78076171875
60.522216796875,-24.522216796875,40.767578125,43.232421875
58.81591796875,-18.81591796875,41.01806640625,46.98193359375
46.302490234375,-26.302490234375,31.578125,40.421875
41.266357421875,-29.266357421875,26.81494140625,37.18505859375
41.282470703125,-29.282470703125,44.70556640625,55.29443359375
43.499755859375,-27.499755859375,42.923828125,53.076171875
41.116943359375,-29.116943359375,45.05859375,54.94140625
49.792236328125,-17.792236328125,26.8232421875,37.1767578125
51.79638671875,-11.79638671875,42.16455078125,53.83544921875
43.850341796875,-15.850341796875,27.25927734375,40.74072265625
32.762939453125,-24.762939453125,38.40283203125,53.59716796875
43.068115234375,-15.068115234375,29.85888671875,46.14111328125
44.859130859375,-16.859130859375,31.70947265625,48.29052734375
53.868896484375,-13.868896484375,27.806640625,44.193359375
43.654541015625,-31.654541015625,25.87890625,42.12109375
49.758056640625,-33.758056640625,23.73486328125,40.26513671875
55.845458984375,-35.845458984375,21.390625,38.609375
61.891357421875,-37.891357421875,23.02001953125,40.97998046875
74.3447265625,-34.3447265625,22.7744140625,41.2255859375
80.128173828125,-40.128173828125,20.6943359375,39.3056640625
76.435546875,-60.435546875,22.80078125,41.19921875
84.42333984375,-76.42333984375,25.228515625,42.771484375
106.891845703125,-86.891845703125,36.2158203125,51.7841796875
130.001953125,-106.001953125,35.9267578125,48.0732421875
151.149169921875,-135.149169921875,28.24169921875,35.75830078125
181.12744140625,-161.12744140625,34.6796875,37.3203125
210.54150390625,-190.54150390625,40.54736328125,39.45263671875
238.2138671875,-222.2138671875,47.24072265625,44.75927734375
279.396484375,-239.396484375,48.5263671875,47.4736328125
301.764892578125,-273.764892578125,38.62548828125,41.37451171875
331.233154296875,-299.233154296875,46.05859375,53.94140625
359.62060546875,-323.62060546875,23.3857421875,36.6142578125
368.34619140625,-364.34619140625,25.05029296875,42.94970703125
390.44775390625,-386.44775390625,37.39111328125,58.60888671875
409.061767578125,-405.061767578125,34.71484375,57.28515625
434.052734375,-410.052734375,33.27197265625,54.72802734375
436.2548828125,-432.2548828125,25.09375,42.90625
457.059814453125,-433.059814453125,37.81103515625,50.18896484375
469.627685546875,-441.627685546875,26.63427734375,33.36572265625
470.27001953125,-462.27001953125,32.6025390625,35.3974609375
494.394287109375,-458.394287109375,36.9833984375,39.0166015625
493.0166015625,-477.0166015625,33.6328125,38.3671875
507.489013671875,-475.489013671875,41.080078125,50.919921875
509.969482421875,-481.969482421875,40.2802734375,55.7197265625
515.341796875,-483.341796875,26.1416015625,45.8583984375
512.68603515625,-492.68603515625,39.08203125,60.91796875
524.68701171875,-488.68701171875,38.87158203125,61.12841796875
519.354736328125,-503.354736328125,30.87158203125,53.12841796875
524.142822265625,-508.142822265625,30.49365234375,53.50634765625
526.3056640625,-514.3056640625,23.56787109375,48.43212890625
531.2548828125,-515.2548828125,20.3896484375,47.6103515625
540.72314453125,-508.72314453125,23.439453125,52.560546875
534.68603515625,-514.68603515625,15.009765625,44.990234375
527.15576171875,-519.15576171875,24.97705078125,55.02294921875
526.0439453125,-514.0439453125,20.857421875,51.142578125
519.21484375,-511.21484375,34.14111328125,65.85888671875
528.67822265625,-488.67822265625,32.65771484375,67.34228515625
520.707275390625,-480.707275390625,16.740234375,55.259765625
503.737548828125,-479.737548828125,15.05615234375,56.94384765625
490.07763671875,-474.07763671875,28.23583984375,71.76416015625
487.65673828125,-455.65673828125,12.51220703125,55.48779296875
476.00634765625,-444.00634765625,13.5712890625,54.4287109375
466.513427734375,-426.513427734375,26.67529296875,65.32470703125
434.784423828125,-426.784423828125,27.03369140625,64.96630859375
428.8916015625,-396.8916015625,10.2587890625,49.7412109375
407.34326171875,-379.34326171875,16.65673828125,59.34326171875
386.831298828125,-358.831298828125,9.13818359375,54.86181640625
355.961181640625,-347.961181640625,22.75634765625,69.24365234375
343.19384765625,-319.19384765625,20.1201171875,63.8798828125
324.984619140625,-296.984619140625,23.04248046875,60.95751953125
295.924072265625,-287.924072265625,26.6181640625,57.3818359375
294.678955078125,-254.678955078125,19.66162109375,44.33837890625
265.74462890625,-253.74462890625,31.26025390625,52.73974609375
255.195556640625,-239.195556640625,35.171875,56.828125
256.622314453125,-216.622314453125,19.86474609375,44.13525390625
233.278076171875,-221.278076171875,20.21240234375,47.78759765625
220.34228515625,-216.34228515625,23.0107421875,52.9892578125
215.179443359375,-203.179443359375,20.60791015625,51.39208984375
213.497314453125,-185.497314453125,32.8466796875,63.1533203125
207.3603515625,-171.3603515625,21.29248046875,50.70751953125
189.0283203125,-169.0283203125,15.55859375,44.44140625
180.72119140625,-156.72119140625,27.5380859375,56.4619140625
170.4873046875,-146.4873046875,19.416015625,48.583984375
150.267333984375,-146.267333984375,33.5146484375,62.4853515625
152.051025390625,-124.051025390625,18.04931640625,45.95068359375
133.97021484375,-121.97021484375,16.9521484375,43.0478515625
126.27783203125,-110.27783203125,35.86376953125,60.13623046875
121.2646484375,-97.2646484375,18.30859375,41.69140625
109.158935546875,-93.158935546875,23.97265625,48.02734375
106.023193359375,-82.023193359375,26.8837890625,53.1162109375
97.667724609375,-77.667724609375,15.40869140625,44.59130859375
87.6669921875,-75.6669921875,22.05859375,53.94140625
81.522216796875,-69.522216796875,33.240234375,66.759765625
74.906005859375,-62.906005859375,33.11376953125,66.88623046875
77.852783203125,-45.852783203125,15.61083984375,48.38916015625
56.774658203125,-52.774658203125,30.54736328125,61.45263671875
58.28466796875,-38.28466796875,33.71533203125,62.28466796875
56.92333984375,-28.92333984375,26.9140625,53.0859375
52.926025390625,-24.926025390625,25.970703125,50.029296875
38.144775390625,-34.144775390625,26.7822265625,49.2177734375
44.1572265625,-24.1572265625,23.3515625,44.6484375
50.476318359375,-14.476318359375,39.77392578125,60.22607421875
48.72509765625,-12.72509765625,20.1533203125,39.8466796875
40.712890625,-16.712890625,38.51318359375,57.48681640625
46.410400390625,-6.410400390625,22.76025390625,41.23974609375
25.901123046875,-21.901123046875,40.736328125,59.263671875
27.34765625,-15.34765625,22.34033203125,41.65966796875
36.983642578125,-0.983642578125,29.6533203125,50.3466796875
37.079345703125,2.920654296875,20.95849609375,43.04150390625
33.865234375,2.134765625,20.623046875,43.376953125
33.42822265625,2.57177734375,22.888671875,45.111328125
23.6611328125,-7.6611328125,27.74365234375,48.25634765625
32.27978515625,-0.27978515625,32.97021484375,51.02978515625
22.88720703125,-10.88720703125,40.33544921875,55.66455078125
33.050537109375,-1.050537109375,37.72412109375,50.27587890625
22.397216796875,-10.397216796875,43.12353515625,52.87646484375
30.7607421875,1.2392578125,34.4833984375,41.5166015625
30.339111328125,5.660888671875,31.60498046875,36.39501953125
11.737060546875,-7.737060546875,36.17626953125,39.82373046875
9.7890625,-5.7890625,47.94140625,52.05859375
25.181640625,10.818359375,40.9033203125,47.0966796875
20.063720703125,3.936279296875,25.40380859375,34.59619140625
19.89794921875,0.10205078125,32.0126953125,43.9873046875
27.6845703125,4.3154296875,25.28662109375,38.71337890625
26.470703125,1.529296875,33.501953125,46.498046875
17.859619140625,-5.859619140625,26.4990234375,37.5009765625
20.219970703125,-0.219970703125,35.73876953125,44.26123046875
12.458740234375,-4.458740234375,34.56640625,41.43359375
15.480712890625,0.519287109375,38.53271484375,45.46728515625
25.669189453125,10.330810546875,27.6103515625,36.3896484375
24.71044921875,7.28955078125,30.1943359375,41.8056640625
13.83642578125,-5.83642578125,28.8994140625,43.1005859375
20.308349609375,-0.308349609375,30.26318359375,45.73681640625
17.81640625,-1.81640625,30.4892578125,45.5107421875
26.607666015625,9.392333984375,29.36865234375,42.63134765625
9.323486328125,-5.323486328125,32.4189453125,43.5810546875
24.6982421875,11.3017578125,29.1650390625,38.8349609375
17.2412109375,2.7587890625,25.38818359375,34.61181640625
17.002685546875,-1.002685546875,45.1845703125,54.8154296875
21.494384765625,-1.494384765625,30.82275390625,41.17724609375
19.826171875,-7.826171875,36.52978515625,47.47021484375
31.046630859375,0.953369140625,40.3583984375,51.6416015625
28.55908203125,-0.55908203125,42.19677734375,53.80322265625
16.431396484375,-8.431396484375,35.87890625,48.12109375
21.437255859375,2.562744140625,35.314453125,48.685546875
10.7607421875,-2.7607421875,28.57373046875,43.42626953125
17.459228515625,6.540771484375,35.8984375,52.1015625
25.955078125,14.044921875,25.5927734375,42.4072265625
11.8466796875,-3.8466796875,23.86279296875,40.13720703125
16.15625,-4.15625,28.68701171875,43.31298828125
29.85693359375,6.14306640625,35.8037109375,48.1962890625
32.36181640625,7.63818359375,42.830078125,53.169921875
29.702392578125,6.297607421875,35.41357421875,44.58642578125
16.36376953125,-4.36376953125,41.35205078125,50.64794921875
18.941162109375,1.058837890625,30.65087890625,41.34912109375
15.833251953125,0.166748046875,33.509765625,46.490234375
13.132080078125,-1.132080078125,40.25244140625,55.74755859375
10.716552734375,-2.716552734375,25.22314453125,42.77685546875
22.446044921875,9.553955078125,38.6669921875,57.3330078125
24.300048828125,11.699951171875,34.64111328125,53.35888671875
14.3623046875,1.6376953125,38.98583984375,57.01416015625
20.702392578125,7.297607421875,35.39111328125,52.60888671875
19.260009765625,4.739990234375,25.546875,42.453125
21.8125,6.1875,37.3251953125,54.6748046875
12.029052734375,-4.029052734375,22.869140625,41.130859375
19.626220703125,4.373779296875,36.544921875,55.455078125
26.565673828125,13.434326171875,34.74609375,53.25390625
15.17919921875,4.82080078125,21.66015625,38.33984375
18.083251953125,9.916748046875,37.12255859375,50.87744140625
19.88037109375,12.11962890625,34.65576171875,45.34423828125
6.80224609375,-2.80224609375,43.68603515625,52.31396484375
20.52197265625,7.47802734375,25.81591796875,34.18408203125
20.281005859375,3.718994140625,33.01708984375,42.98291015625
17.27294921875,-1.27294921875,25.63818359375,38.36181640625
29.062744140625,10.937255859375,34.23828125,49.76171875
21.8037109375,6.1962890625,29.31396484375,46.68603515625
20.151611328125,7.848388671875,25.06005859375,42.93994140625
16.9287109375,7.0712890625,35.3173828125,52.6826171875
6.71484375,-2.71484375,23.716796875,40.283203125
23.5791015625,12.4208984375,31.92724609375,48.07275390625
27.089111328125,12.910888671875,25.81396484375,42.18603515625
26.57470703125,9.42529296875,33.45263671875,50.54736328125
27.490234375,8.509765625,37.0224609375,54.9775390625
11.70166015625,-7.70166015625,30.685546875,49.314453125
27.544921875,8.455078125,22.529296875,41.470703125
19.6142578125,0.3857421875,36.57373046875,55.42626953125
26.397705078125,5.602294921875,36.81201171875,55.18798828125
25.981201171875,2.018798828125,25.2294921875,42.7705078125
28.007080078125,-0.007080078125,29.78662109375,46.21337890625
17.9052734375,-13.9052734375,36.384765625,51.615234375
19.220703125,-15.220703125,32.86328125,47.13671875
23.810546875,-11.810546875,31.060546875,44.939453125
25.802734375,-9.802734375,34.89794921875,49.10205078125
19.401611328125,-15.401611328125,26.4228515625,41.5771484375
34.755615234375,1.244384765625,31.7958984375,48.2041015625
17.990234375,-13.990234375,35.2236328125,52.7763671875
27.3232421875,-3.3232421875,34.892578125,53.107421875
23.0859375,-7.0859375,32.92578125,51.07421875
19.57568359375,-11.57568359375,21.37451171875,38.62548828125
30.84033203125,-2.84033203125,36.2216796875,51.7783203125
26.560546875,-10.560546875,41.3720703125,54.6279296875
22.131103515625,-18.131103515625,34.6162109375,45.3837890625
24.913330078125,-16.913330078125,35.62158203125,44.37841796875
26.543701171875,-14.543701171875,38.001953125,45.998046875
35.131103515625,-3.131103515625,27.49365234375,36.50634765625
21.220703125,-13.220703125,42.138671875,53.861328125
31.55517578125,0.44482421875,36.35107421875,51.64892578125
24.759033203125,-4.759033203125,38.78369140625,57.21630859375
21.083984375,-9.083984375,38.0546875,57.9453125
26.30908203125,-6.30908203125,20.4833984375,39.5166015625
23.841796875,-11.841796875,35.95849609375,52.04150390625
26.98486328125,-10.98486328125,34.00439453125,45.99560546875
23.2685546875,-15.2685546875,39.97998046875,48.02001953125
24.661376953125,-12.661376953125,39.2978515625,44.7021484375
29.552734375,-5.552734375,33.60009765625,38.39990234375
22.53466796875,-10.53466796875,34.85107421875,41.14892578125
26.121826171875,-6.121826171875,37.34228515625,46.65771484375
18.533447265625,-14.533447265625,33.59033203125,46.40966796875
33.616455078125,-1.616455078125,24.1337890625,39.8662109375
28.919189453125,-8.919189453125,21.32177734375,38.67822265625
21.89111328125,-17.89111328125,37.19775390625,54.80224609375
34.1220703125,-6.1220703125,25.51806640625,42.48193359375
29.51611328125,-9.51611328125,29.91064453125,46.08935546875
28.3212890625,-8.3212890625,36.08935546875,51.91064453125
33.005615234375,-1.005615234375,21.994140625,38.005859375
24.0517578125,-8.0517578125,37.77392578125,54.22607421875
17.769287109375,-13.769287109375,27.6259765625,44.3740234375
30.18017578125,-2.18017578125,29.64306640625,46.35693359375
37.008056640625,2.991943359375,21.77734375,38.22265625
27.78125,-7.78125,31.9296875,48.0703125
36.051025390625,-0.051025390625,22.06689453125,37.93310546875
23.6259765625,-11.6259765625,28.26708984375,43.73291015625
34.665283203125,1.334716796875,30.662109375,45.337890625
21.557373046875,-9.557373046875,31.3115234375,44.6884765625
20.6533203125,-8.6533203125,32.0947265625,43.9052734375
22.037109375,-6.037109375,40.7333984375,51.2666015625
23.48486328125,-3.48486328125,24.9404296875,35.0595703125
22.656005859375,-2.656005859375,42.59619140625,53.40380859375
25.402099609375,2.597900390625,35.828125,48.171875
23.95263671875,4.04736328125,42.94287109375,57.05712890625
18.794677734375,1.205322265625,24.2666015625,39.7333984375
18.3154296875,1.6845703125,37.9892578125,54.0107421875
26.5107421875,9.4892578125,34.10791015625,49.89208984375
12.9794921875,-4.9794921875,26.47705078125,41.52294921875
19.186279296875,0.813720703125,42.9228515625,57.0771484375
16.783935546875,-0.783935546875,41.33740234375,54.66259765625
9.795166015625,-5.795166015625,43.71728515625,56.28271484375
26.586181640625,13.413818359375,24.138671875,35.861328125
25.66162109375,14.33837890625,26.69091796875,37.30908203125
21.417236328125,10.582763671875,27.39599609375,36.60400390625
23.961669921875,12.038330078125,42.16748046875,49.83251953125
9.075439453125,-5.075439453125,46.82373046875,53.17626953125
12.3046875,-4.3046875,35.1552734375,40.8447265625
19.13818359375,0.86181640625,43.0126953125,48.9873046875
27.213134765625,8.786865234375,30.376953125,37.623046875
12.4716796875,-4.4716796875,29.38525390625,38.61474609375
19.179443359375,4.820556640625,38.2880859375,49.7119140625
9.79248046875,-1.79248046875,27.35400390625,40.64599609375
14.72998046875,5.27001953125,32.75634765625,47.24365234375
14.18701171875,5.81298828125,24.51416015625,39.48583984375
8.0986328125,-0.0986328125,36.51708984375,51.48291015625
6.24755859375,-2.24755859375,26.60498046875,41.39501953125
8.409912109375,-0.409912109375,42.642578125,57.357421875
6.426513671875,-2.426513671875,30.57080078125,45.42919921875
20.204833984375,11.795166015625,40.42724609375,55.57275390625
17.718994140625,10.281005859375,24.3291015625,39.6708984375
11.033203125,4.966796875,28.39306640625,43.60693359375
4.2958984375,-0.2958984375,36.66748046875,51.33251953125
19.664306640625,16.335693359375,37.10205078125,50.89794921875
5.21240234375,2.78759765625,41.58544921875,54.41455078125
10.910400390625,9.089599609375,23.986328125,36.013671875
18.6923828125,17.3076171875,26.1787109375,37.8212890625
10.543701171875,9.456298828125,26.068359375,37.931640625
18.501708984375,17.498291015625,29.64404296875,42.35595703125
8.573974609375,7.426025390625,29.04638671875,42.95361328125
20.67529296875,19.32470703125,28.57421875,43.42578125
20.6728515625,19.3271484375,28.57177734375,43.42822265625
6.52099609375,5.47900390625,35.22509765625,48.77490234375
12.352783203125,11.647216796875,24.38671875,35.61328125
16.421142578125,15.578857421875,25.5908203125,34.4091796875
12.88525390625,11.11474609375,40.28271484375,47.71728515625
17.5986328125,14.4013671875,32.134765625,39.865234375
14.101806640625,9.898193359375,43.24658203125,52.75341796875
15.88671875,12.11328125,38.09130859375,49.90869140625
6.781982421875,5.218017578125,25.23876953125,38.76123046875
11.183349609375,12.816650390625,29.0205078125,42.9794921875
7.931884765625,12.068115234375,35.36865234375,48.63134765625
17.856201171875,22.143798828125,25.92919921875,38.07080078125
19.205078125,20.794921875,34.3525390625,45.6474609375
21.36865234375,18.63134765625,44.52392578125,55.47607421875
5.13330078125,-1.13330078125,34.56982421875,45.43017578125
19.3935546875,12.6064453125,36.68212890625,47.31787109375
9.860107421875,6.139892578125,36.94189453125,47.05810546875
11.2802734375,12.7197265625,27.27392578125,36.72607421875
9.00244140625,14.99755859375,41.5146484375,50.4853515625
-1.823486328125,5.823486328125,43.51171875,52.48828125
7.109375,12.890625,41.16943359375,50.83056640625
19.150146484375,20.849853515625,44.4736328125,55.5263671875
19.123046875,16.876953125,25.50439453125,38.49560546875
6.01025390625,1.98974609375,26.455078125,41.544921875
19.481201171875,16.518798828125,31.60595703125,48.39404296875
9.97802734375,10.02197265625,39.236328125,56.763671875
10.36474609375,13.63525390625,37.49560546875,54.50439453125
17.423583984375,22.576416015625,26.3251953125,41.6748046875
-0.481201171875,4.481201171875,23.4638671875,36.5361328125
0.56787109375,3.43212890625,24.5498046875,35.4501953125
18.195556640625,17.804443359375,31.2705078125,40.7294921875
13.91552734375,10.08447265625,45.486328125,54.513671875
11.255615234375,4.744384765625,25.2802734375,34.7197265625
15.853759765625,8.146240234375,24.91455078125,35.08544921875
13.537109375,6.462890625,38.71630859375,49.28369140625
16.36376953125,11.63623046875,34.94873046875,45.05126953125
18.614013671875,17.385986328125,37.7021484375,46.2978515625
12.757568359375,15.242431640625,26.83837890625,33.16162109375
1.390380859375,6.609619140625,30.01513671875,33.98486328125
7.087646484375,12.912353515625,36.80615234375,39.19384765625
14.14404296875,17.85595703125,48.89208984375,51.10791015625
2.32177734375,1.67822265625,28.2255859375,31.7744140625
8.808349609375,3.191650390625,27.07568359375,32.92431640625
6.512451171875,-2.512451171875,27.89404296875,36.10595703125
20.589111328125,11.410888671875,33.09228515625,42.90771484375
16.909423828125,11.090576171875,34.865234375,45.134765625
10.1796875,9.8203125,29.1513671875,38.8486328125
5.60009765625,10.39990234375,27.71875,36.28125
4.251953125,11.748046875,32.3203125,39.6796875
16.585693359375,23.414306640625,26.80810546875,33.19189453125
16.28857421875,19.71142578125,31.16650390625,36.83349609375
8.54296875,7.45703125,45.4560546875,50.5439453125
14.453125,9.546875,45.7109375,50.2890625
5.3955078125,-1.3955078125,31.87744140625,36.12255859375
9.176513671875,2.823486328125,35.8291015625,40.1708984375
12.00048828125,7.99951171875,37.4716796875,42.5283203125
10.302490234375,9.697509765625,36.8291015625,43.1708984375
14.544921875,17.455078125,46.0419921875,53.9580078125
5.086181640625,10.913818359375,45.2890625,54.7109375
8.1640625,15.8359375,24.69482421875,35.30517578125
-0.050048828125,8.050048828125,32.28369140625,43.71630859375
2.568115234375,9.431884765625,39.98974609375,52.01025390625
12.026611328125,15.973388671875,37.70263671875,50.29736328125
16.096435546875,15.903564453125,39.32666015625,52.67333984375
4.24853515625,-0.24853515625,32.82666015625,47.17333984375
15.733642578125,8.266357421875,32.24267578125,47.75732421875
11.832763671875,4.167236328125,27.67333984375,44.32666015625
8.211181640625,3.788818359375,23.2412109375,40.7587890625
7.2060546875,8.7939453125,23.0595703125,40.9404296875
-0.161376953125,8.161376953125,35.1875,52.8125
13.443115234375,26.556884765625,39.587890625,56.412109375
-4.932861328125,8.932861328125,26.1171875,41.8828125
-1.05224609375,9.05224609375,22.5615234375,37.4384765625
10.370849609375,13.629150390625,42.72509765625,57.27490234375
15.99609375,12.00390625,32.529296875,47.470703125
18.474365234375,9.525634765625,24.0732421875,39.9267578125
21.049072265625,10.950927734375,31.6005859375,48.3994140625
15.86767578125,8.13232421875,23.3681640625,40.6318359375
5.873046875,2.126953125,21.4794921875,38.5205078125
16.31103515625,15.68896484375,39.79248046875,56.20751953125
10.093505859375,9.906494140625,41.9775390625,58.0224609375
17.34423828125,14.65576171875,27.6982421875,44.3017578125
17.389404296875,10.610595703125,40.80419921875,59.19580078125
9.158203125,-1.158203125,39.42724609375,60.57275390625
7.751708984375,-3.751708984375,31.93115234375,56.06884765625
18.866943359375,9.133056640625,34.76708984375,61.23291015625
12.893310546875,7.106689453125,18.2822265625,45.7177734375
4.6845703125,3.3154296875,32.59423828125,59.40576171875
19.140869140625,20.859130859375,19.55908203125,44.44091796875
16.822265625,19.177734375,22.8466796875,45.1533203125
9.75146484375,10.24853515625,20.07861328125,39.92138671875
13.443603515625,10.556396484375,40.95751953125,59.04248046875
7.125244140625,0.874755859375,29.35205078125,46.64794921875
12.054931640625,3.945068359375,27.29931640625,44.70068359375
11.833740234375,4.166259765625,30.93408203125,49.06591796875
4.569580078125,-0.569580078125,30.41357421875,49.58642578125
12.801025390625,11.198974609375,37.8720703125,58.1279296875
19.250732421875,20.749267578125,39.4228515625,60.5771484375
0.528564453125,3.471435546875,23.15625,44.84375
8.905517578125,11.094482421875,31.10791015625,52.89208984375
4.207275390625,3.792724609375,19.2333984375,40.7666015625
7.8662109375,4.1337890625,23.40966796875,44.59033203125
11.154052734375,4.845947265625,37.505859375,58.494140625
11.528076171875,4.471923828125,35.47998046875,56.52001953125
4.91796875,-0.91796875,31.42138671875,52.57861328125
17.76708984375,14.23291015625,21.50390625,42.49609375
10.80078125,9.19921875,19.8583984375,40.1416015625
2.646484375,1.353515625,26.48388671875,45.51611328125
13.509765625,10.490234375,35.25390625,52.74609375
9.077392578125,2.922607421875,33.98974609375,50.01025390625
10.682861328125,1.317138671875,36.5458984375,51.4541015625
23.6533203125,12.3466796875,38.853515625,53.146484375
23.64990234375,12.35009765625,32.92431640625,47.07568359375
18.8193359375,9.1806640625,28.833984375,43.166015625
13.691162109375,6.308837890625,26.68212890625,41.31787109375
10.896240234375,5.103759765625,30.5458984375,45.4541015625
14.880859375,9.119140625,38.43994140625,53.56005859375
7.732666015625,0.267333984375,24.310546875,39.689453125
11.1455078125,0.8544921875,32.0771484375,47.9228515625
12.514404296875,-0.514404296875,29.70654296875,46.29345703125
21.16552734375,6.83447265625,39.24658203125,56.75341796875
16.68115234375,3.31884765625,26.80078125,45.19921875
25.156494140625,14.843505859375,20.4462890625,39.5537109375
13.201416015625,6.798583984375,34.17138671875,53.82861328125
5.6708984375,2.3291015625,35.9033203125,56.0966796875
21.275634765625,18.724365234375,35.607421875,56.392578125
4.280029296875,-0.280029296875,35.3671875,56.6328125
8.401123046875,-0.401123046875,39.35205078125,60.64794921875
26.91552734375,13.08447265625,23.71240234375,44.28759765625
26.922119140625,9.077880859375,40.4677734375,59.5322265625
23.673583984375,4.326416015625,27.482421875,44.517578125
28.861328125,11.138671875,28.5087890625,43.4912109375
24.74560546875,11.25439453125,23.28564453125,36.71435546875
10.087158203125,1.912841796875,31.62109375,44.37890625
11.895263671875,8.104736328125,33.466796875,46.533203125
15.073974609375,12.926025390625,28.93896484375,43.06103515625
6.073974609375,1.926025390625,36.27490234375,51.72509765625
12.696044921875,3.303955078125,31.74365234375,48.25634765625
28.1259765625,11.8740234375,39.52783203125,56.47216796875
17.198486328125,-5.198486328125,39.65869140625,56.34130859375
24.795654296875,-0.795654296875,28.02001953125,43.97998046875
20.2646484375,-4.2646484375,34.44677734375,49.55322265625
21.718505859375,2.281494140625,28.833984375,43.166015625
8.0693359375,-4.0693359375,35.19482421875,48.80517578125
14.717041015625,9.282958984375,23.60791015625,36.39208984375
12.972900390625,11.027099609375,30.11181640625,41.88818359375
5.4658203125,2.5341796875,38.64404296875,49.35595703125
19.858642578125,12.141357421875,41.0732421875,50.9267578125
17.039306640625,2.960693359375,27.2802734375,36.7197265625
27.675537109375,8.324462890625,25.2216796875,34.7783203125
30.802978515625,9.197021484375,44.9267578125,55.0732421875
24.169677734375,3.830322265625,24.45947265625,35.54052734375
26.235107421875,9.764892578125,27.89404296875,40.10595703125
19.8935546875,8.1064453125,29.30712890625,42.69287109375
8.0869140625,-0.0869140625,30.78515625,45.21484375
11.461669921875,4.538330078125,38.423828125,53.576171875
16.17919921875,7.82080078125,40.3134765625,55.6865234375
13.902099609375,2.097900390625,42.50634765625,57.49365234375
19.964111328125,4.035888671875,24.97021484375,39.02978515625
11.666259765625,-7.666259765625,43.58056640625,56.41943359375
16.56982421875,-4.56982421875,38.15185546875,49.84814453125
30.61181640625,9.38818359375,40.50732421875,51.49267578125
16.00439453125,-4.00439453125,34.5439453125,45.4560546875
25.041748046875,6.958251953125,32.25634765625,43.74365234375
17.994140625,2.005859375,25.7294921875,38.2705078125
27.1484375,12.8515625,39.10888671875,52.89111328125
26.859375,13.140625,40.568359375,55.431640625
21.494384765625,6.505615234375,36.259765625,51.740234375
21.243896484375,2.756103515625,24.248046875,39.751953125
13.910888671875,-9.910888671875,42.466796875,57.533203125
24.838134765625,-4.838134765625,26.71875,41.28125
31.080078125,-3.080078125,40.76953125,55.23046875
27.8046875,-7.8046875,22.47509765625,37.52490234375
28.7314453125,-4.7314453125,23.89208984375,40.10791015625
28.33642578125,-0.33642578125,39.2607421875,56.7392578125
17.68798828125,-5.68798828125,36.8681640625,55.1318359375
13.98779296875,-5.98779296875,34.875,53.125
22.052978515625,1.947021484375,37.22998046875,54.77001953125
13.96337890625,-9.96337890625,27.71875,44.28125
35.02783203125,4.97216796875,42.11962890625,57.88037109375
28.140625,-8.140625,38.34326171875,53.65673828125
34.39892578125,-6.39892578125,34.4677734375,49.5322265625
39.640869140625,-3.640869140625,28.64990234375,43.35009765625
26.51513671875,-18.51513671875,36.9833984375,51.0166015625
31.98486328125,-15.98486328125,31.40234375,44.59765625
28.619873046875,-24.619873046875,39.71630859375,52.28369140625
50.1728515625,-10.1728515625,23.7314453125,36.2685546875
51.725830078125,-15.725830078125,39.39013671875,52.60986328125
40.265625,-32.265625,30.83837890625,45.16162109375
43.29296875,-31.29296875,32.37646484375,47.62353515625
55.0654296875,-19.0654296875,32.32568359375,47.67431640625
40.36328125,-32.36328125,32.85888671875,47.14111328125
41.96142578125,-29.96142578125,27.88232421875,40.11767578125
42.16943359375,-30.16943359375,31.0478515625,40.9521484375
48.7138671875,-24.7138671875,25.9033203125,34.0966796875
45.007568359375,-29.007568359375,36.09521484375,43.90478515625
48.60009765625,-24.60009765625,43.53369140625,52.46630859375
47.50439453125,-23.50439453125,32.41015625,43.58984375
54.19580078125,-14.19580078125,43.0986328125,56.9013671875
51.302734375,-15.302734375,41.98974609375,58.01025390625
35.202880859375,-31.202880859375,33.3564453125,50.6435546875
51.7919921875,-15.7919921875,33.29638671875,50.70361328125
46.56591796875,-22.56591796875,35.74169921875,52.25830078125
54.94775390625,-14.94775390625,38.51611328125,53.48388671875
36.62841796875,-32.62841796875,31.3837890625,44.6162109375
37.695068359375,-29.695068359375,32.0732421875,43.9267578125
42.49169921875,-22.49169921875,40.31396484375,51.68603515625
35.326904296875,-27.326904296875,35.92578125,48.07421875
32.22705078125,-28.22705078125,37.0283203125,50.9716796875
32.890380859375,-24.890380859375,24.220703125,39.779296875
42.857177734375,-10.857177734375,24.5556640625,39.4443359375
27.7822265625,-19.7822265625,31.20068359375,40.79931640625
33.60595703125,-5.60595703125,50.9013671875,49.0986328125
28.524169921875,-0.524169921875,43.5068359375,24.4931640625
20.827880859375,3.172119140625,67.841796875,28.158203125
22.793212890625,17.206787109375,76.02001953125,15.97998046875
16.693359375,23.306640625,84.115234375,7.884765625
-3.133056640625,15.133056640625,88.8740234375,3.1259765625
-8.27001953125,20.27001953125,90.126953125,1.873046875
-14.26611328125,22.26611328125,72.71142578125,-12.71142578125
-18.690673828125,22.690673828125,74.01513671875,-6.01513671875
-17.2216796875,25.2216796875,71.4052734375,-3.4052734375
-17.766845703125,21.766845703125,65.8212890625,-5.8212890625
-2.56591796875,30.56591796875,67.61328125,-3.61328125
-6.190673828125,18.190673828125,78.611328125,5.388671875
2.575927734375,17.424072265625,78.3095703125,1.6904296875
4.909912109375,11.090087890625,74.103515625,-6.103515625
8.11279296875,7.88720703125,81.48046875,-1.48046875
21.75390625,18.24609375,86.14697265625,1.85302734375
21.786376953125,18.213623046875,78.05615234375,-6.05615234375
6.580810546875,5.419189453125,83.37451171875,0.62548828125
4.831787109375,7.168212890625,88.3984375,7.6015625
13.3271484375,18.6728515625,71.44677734375,-7.44677734375
8.67578125,15.32421875,78.7294921875,1.2705078125
-0.895751953125,4.895751953125,70.27490234375,-6.27490234375
14.405517578125,17.594482421875,83.95068359375,8.04931640625
2.041259765625,1.958740234375,71.58349609375,-3.58349609375
7.365234375,4.634765625,69.0810546875,-5.0810546875
9.89013671875,6.10986328125,78.47412109375,5.52587890625
17.458984375,14.541015625,71.88232421875,0.11767578125
8.24658203125,7.75341796875,67.44873046875,-3.44873046875
10.613037109375,13.386962890625,67.28173828125,-3.28173828125
-1.050048828125,5.050048828125,73.4130859375,2.5869140625
5.5849609375,14.4150390625,73.76611328125,2.23388671875
-1.266357421875,9.266357421875,80.1640625,7.8359375
0.4736328125,11.5263671875,82.40087890625,9.59912109375
10.75146484375,21.24853515625,66.3349609375,-6.3349609375
5.42333984375,14.57666015625,83.96484375,12.03515625
12.298828125,19.701171875,79.45947265625,8.54052734375
3.151611328125,8.848388671875,75.08837890625,4.91162109375
1.730712890625,6.269287109375,83.08203125,12.91796875
17.79833984375,22.20166015625,79.4853515625,8.5146484375
11.213623046875,16.786376953125,84.14208984375,11.85791015625
14.017333984375,21.982666015625,68.80615234375,-4.80615234375
10.459228515625,21.540771484375,75.314453125,0.685546875
0.932373046875,15.067626953125,75.6748046875,0.3251953125
1.8203125,18.1796875,70.02197265625,-6.02197265625
9.301513671875,26.698486328125,72.47412109375,-4.47412109375
1.2265625,18.7734375,68.9921875,-8.9921875
-2.8154296875,14.8154296875,89.3603515625,10.6396484375
10.758544921875,29.241455078125,85.30712890625,6.69287109375
9.810302734375,30.189697265625,80.71142578125,3.28857421875
-9.426513671875,13.426513671875,67.732421875,-7.732421875
-10.50830078125,14.50830078125,66.75439453125,-6.75439453125
6.927734375,33.072265625,70.2001953125,-2.2001953125
0.941650390625,27.058349609375,78.32470703125,5.67529296875
-2.748046875,22.748046875,83.14794921875,8.85205078125
-8.617919921875,16.617919921875,86.49267578125,9.50732421875
-11.08154296875,15.08154296875,86.0615234375,5.9384765625
1.745361328125,30.254638671875,79.48193359375,-3.48193359375
0.1298828125,31.8701171875,74.35693359375,-10.35693359375
0.61669921875,35.38330078125,84.35791015625,-0.35791015625
-14.233642578125,22.233642578125,85.36083984375,2.63916015625
-16.15234375,20.15234375,89.55322265625,10.44677734375
-11.373291015625,23.373291015625,83.42919921875,8.57080078125
-4.604736328125,28.604736328125,73.64697265625,2.35302734375
-10.71044921875,22.71044921875,72.779296875,3.220703125
-8.226806640625,28.226806640625,77.0810546875,6.9189453125
-12.983154296875,28.983154296875,80.39453125,7.60546875
-6.07958984375,42.07958984375,70.2314453125,-6.2314453125
-24.2763671875,28.2763671875,78.00048828125,-2.00048828125
-8.61083984375,44.61083984375,87.2236328125,4.7763671875
-4.893798828125,44.893798828125,75.68115234375,-7.68115234375
-19.810302734375,23.810302734375,73.4365234375,-9.4365234375
-16.572509765625,20.572509765625,70.79345703125,-10.79345703125
3.6669921875,36.3330078125,72.17333984375,-8.17333984375
-11.681396484375,19.681396484375,89.9462890625,10.0537109375
-12.476318359375,20.476318359375,78.26220703125,-2.26220703125
-12.04541015625,24.04541015625,71.00439453125,-11.00439453125
-13.5849609375,25.5849609375,81.87744140625,-1.87744140625
-10.5126953125,30.5126953125,78.57080078125,-6.57080078125
-2.634521484375,38.634521484375,90.88525390625,5.11474609375
-4.09912109375,36.09912109375,84.7568359375,-0.7568359375
-17.246337890625,21.246337890625,84.21142578125,-0.21142578125
-12.452392578125,24.452392578125,85.3369140625,2.6630859375
1.96923828125,38.03076171875,78.29052734375,-2.29052734375
-14.15234375,22.15234375,79.30029296875,0.69970703125
-8.78271484375,28.78271484375,68.62451171875,-8.62451171875
-3.67822265625,35.67822265625,86.4814453125,9.5185546875
-2.483642578125,38.483642578125,78.96826171875,1.03173828125
-8.88818359375,32.88818359375,70.01318359375,-10.01318359375
-16.747802734375,24.747802734375,71.36962890625,-11.36962890625
-0.11279296875,40.11279296875,84.6630859375,-0.6630859375
-9.150390625,29.150390625,79.5029296875,-7.5029296875
1.944091796875,38.055908203125,73.625,-13.625
-13.0068359375,21.0068359375,85.0126953125,-1.0126953125
-2.16845703125,30.16845703125,91.93115234375,8.06884765625
0.316162109375,31.683837890625,90.84033203125,9.15966796875
-13.61474609375,17.61474609375,78.205078125,-2.205078125
-9.89599609375,21.89599609375,84.29345703125,3.70654296875
-0.354248046875,32.354248046875,91.06298828125,8.93701171875
-14.783935546875,18.783935546875,88.2138671875,3.7861328125
-13.031005859375,21.031005859375,85.35498046875,-1.35498046875
-7.037841796875,27.037841796875,84.16357421875,-4.16357421875
-6.848388671875,26.848388671875,74.45166015625,-14.45166015625
1.413818359375,34.586181640625,78.15771484375,-10.15771484375
-0.411376953125,32.411376953125,77.33984375,-9.33984375
-12.46044921875,20.46044921875,88.19921875,3.80078125
-8.785400390625,24.785400390625,81.0888671875,-1.0888671875
-3.3193359375,31.3193359375,84.43505859375,3.56494140625
-5.873779296875,29.873779296875,88.5703125,7.4296875
-8.186767578125,28.186767578125,73.55078125,-9.55078125
-14.021240234375,22.021240234375,83.0732421875,-3.0732421875
-11.286865234375,23.286865234375,92.57373046875,3.42626953125
-10.128173828125,22.128173828125,95.49755859375,4.50244140625
-2.92333984375,26.92333984375,77.5673828125,-13.5673828125
3.8330078125,32.1669921875,82.89013671875,-6.89013671875
-0.2646484375,28.2646484375,85.828125,-1.828125
2.67333984375,33.32666015625,90.77197265625,5.22802734375
-11.0390625,23.0390625,79.94970703125,-3.94970703125
1.276123046875,38.723876953125,73.3876953125,-9.3876953125
-3.597412109375,35.597412109375,74.97802734375,-6.97802734375
-1.1455078125,37.1455078125,70.60546875,-10.60546875
0.56494140625,35.43505859375,80.24560546875,-0.24560546875
-9.15869140625,21.15869140625,79.9912109375,0.0087890625
6.6474609375,33.3525390625,89.9970703125,10.0029296875
-10.9072265625,14.9072265625,84.3916015625,3.6083984375
-8.140625,20.140625,79.1943359375,-3.1943359375
-12.677978515625,20.677978515625,72.29736328125,-12.29736328125
-5.671630859375,33.671630859375,77.50732421875,-9.50732421875
-14.18359375,30.18359375,84.623046875,-4.623046875
-17.521484375,29.521484375,91.48291015625,0.51708984375
-9.4248046875,37.4248046875,93.95556640625,2.04443359375
-6.082275390625,38.082275390625,83.9208984375,-7.9208984375
-4.025634765625,36.025634765625,93.2822265625,2.7177734375
-3.927001953125,31.927001953125,94.03759765625,5.96240234375
-8.37451171875,24.37451171875,74.34765625,-10.34765625
4.296630859375,35.703369140625,80.57421875,-0.57421875
-9.93408203125,21.93408203125,69.201171875,-9.201171875
-2.8115234375,30.8115234375,74.67041015625,-2.67041015625
2.083740234375,37.916259765625,69.17529296875,-9.17529296875
1.196044921875,38.803955078125,82.55810546875,1.44189453125
-1.159423828125,37.159423828125,86.353515625,1.646484375
-6.92529296875,30.92529296875,87.962890625,0.037109375
-0.33056640625,36.33056640625,90.8603515625,1.1396484375
-3.755126953125,31.755126953125,76.74853515625,-12.74853515625
-3.49853515625,31.49853515625,77.65771484375,-9.65771484375
-3.614013671875,31.614013671875,81.951171875,-1.951171875
-7.934814453125,27.934814453125,90.220703125,9.779296875
-10.2451171875,26.2451171875,75.0888671875,-3.0888671875
-12.44287109375,24.44287109375,74.96142578125,-2.96142578125
1.42724609375,38.57275390625,69.8603515625,-9.8603515625
-10.74853515625,26.74853515625,89.4111328125,6.5888671875
-1.0732421875,37.0732421875,87.01904296875,0.98095703125
-13.600830078125,25.600830078125,80.14892578125,-8.14892578125
-16.32177734375,24.32177734375,94.56591796875,5.43408203125
-15.138671875,27.138671875,74.41259765625,-14.41259765625
-9.864013671875,33.864013671875,92.08203125,3.91796875
-10.267333984375,34.267333984375,89.99267578125,2.00732421875
-16.19580078125,28.19580078125,84.37060546875,-4.37060546875
-17.675048828125,25.675048828125,77.13720703125,-13.13720703125
-18.92919921875,22.92919921875,83.9375,-7.9375
-16.278076171875,24.278076171875,90.33349609375,-2.33349609375
-13.955810546875,25.955810546875,84.04736328125,-8.04736328125
-1.94677734375,37.94677734375,91.12109375,0.87890625
-3.978759765625,35.978759765625,77.892578125,-9.892578125
-13.7001953125,25.7001953125,84.81787109375,-0.81787109375
-6.9365234375,30.9365234375,72.25634765625,-12.25634765625
-15.81787109375,19.81787109375,82.35009765625,-2.35009765625
-14.707763671875,18.707763671875,87.0185546875,0.9814453125
-7.99853515625,23.99853515625,88.02685546875,-0.02685546875
4.0791015625,35.9208984375,89.0654296875,-1.0654296875
3.566162109375,36.433837890625,91.82275390625,0.17724609375
-5.229736328125,29.229736328125,92.06005859375,-0.06005859375
-1.834228515625,33.834228515625,75.69970703125,-15.69970703125
-5.787109375,29.787109375,88.890625,-0.890625
-6.835205078125,26.835205078125,79.99755859375,-7.99755859375
-5.063232421875,25.063232421875,79.44775390625,-7.44775390625
-8.90234375,16.90234375,79.474609375,-7.474609375
6.99755859375,29.00244140625,83.92578125,-3.92578125
8.015625,27.984375,82.2900390625,-6.2900390625
-0.160888671875,20.160888671875,83.970703125,-3.970703125
2.64599609375,25.35400390625,72.6513671875,-12.6513671875
3.08203125,28.91796875,82.51904296875,1.48095703125
-7.983154296875,19.983154296875,68.216796875,-8.216796875
-11.822021484375,15.822021484375,84.55859375,11.44140625
-0.198974609375,24.198974609375,86.138671875,13.861328125
2.458251953125,21.541748046875,75.04345703125,0.95654296875
-0.82861328125,12.82861328125,88.7939453125,11.2060546875
12.806884765625,23.193115234375,80.55712890625,-0.55712890625
8.61083984375,19.38916015625,71.5380859375,-11.5380859375
0.645751953125,15.354248046875,75.3486328125,-7.3486328125
-4.13671875,16.13671875,70.16357421875,-10.16357421875
-10.299072265625,14.299072265625,70.60986328125,-6.60986328125
5.3349609375,30.6650390625,85.447265625,10.552734375
-7.009521484375,15.009521484375,69.21044921875,-5.21044921875
7.7255859375,24.2744140625,71.97216796875,-3.97216796875
3.886474609375,16.113525390625,83.34033203125,4.65966796875
8.024169921875,19.975830078125,84.70166015625,3.29833984375
11.780029296875,28.219970703125,75.572265625,-7.572265625
6.20361328125,29.79638671875,83.82861328125,0.17138671875
5.250732421875,34.749267578125,87.705078125,4.294921875
-11.314453125,19.314453125,83.57470703125,0.42529296875
-8.971923828125,16.971923828125,91.69189453125,8.30810546875
1.208251953125,18.791748046875,78.0546875,-6.0546875
-0.82861328125,8.82861328125,86.44677734375,1.55322265625
7.055908203125,12.944091796875,90.60595703125,5.39404296875
10.2158203125,17.7841796875,80.4052734375,-4.4052734375
1.483642578125,14.516357421875,73.92529296875,-9.92529296875
-5.432861328125,13.432861328125,79.3896484375,-3.3896484375
8.9892578125,31.0107421875,71.01025390625,-11.01025390625
-4.77880859375,16.77880859375,86.8779296875,5.1220703125
8.517822265625,27.482177734375,84.96533203125,3.03466796875
-2.50390625,14.50390625,75.20068359375,-7.20068359375
5.053466796875,22.946533203125,79.53759765625,-3.53759765625
-6.953125,14.953125,83.94677734375,0.05322265625
-9.660888671875,17.660888671875,72.380859375,-12.380859375
2.243896484375,33.756103515625,88.7509765625,3.2490234375
-2.242919921875,30.242919921875,78.95556640625,-6.95556640625
-12.950927734375,16.950927734375,88.9462890625,3.0537109375
-2.539794921875,22.539794921875,88.7783203125,3.2216796875
-2.098388671875,18.098388671875,72.59765625,-12.59765625
-0.600341796875,16.600341796875,78.5419921875,-6.5419921875
3.519287109375,20.480712890625,82.625,-2.625
10.510009765625,29.489990234375,82.69482421875,-2.69482421875
1.116943359375,22.883056640625,80.51025390625,-4.51025390625
0.17236328125,23.82763671875,91.90185546875,8.09814453125
4.19677734375,27.80322265625,72.9052734375,-8.9052734375
7.207275390625,28.792724609375,81.794921875,2.205078125
0.7861328125,19.2138671875,82.9658203125,5.0341796875
8.3232421875,23.6767578125,82.75048828125,5.24951171875
9.311767578125,22.688232421875,89.2412109375,10.7587890625
7.5693359375,20.4306640625,82.2197265625,1.7802734375
-0.715576171875,12.715576171875,81.24267578125,-1.24267578125
10.90478515625,25.09521484375,85.86376953125,2.13623046875
8.9462890625,23.0537109375,73.8671875,-9.8671875
-4.195068359375,8.195068359375,85.35986328125,2.64013671875
-0.391845703125,8.391845703125,84.66845703125,3.33154296875
4.1318359375,7.8681640625,80.12451171875,-0.12451171875
6.81787109375,5.18212890625,73.8779296875,-5.8779296875
14.929931640625,9.070068359375,89.8603515625,10.1396484375
23.8466796875,16.1533203125,69.876953125,-9.876953125
9.380615234375,2.619384765625,79.7607421875,0.2392578125
13.9404296875,10.0595703125,77.5048828125,-1.5048828125
16.394287109375,15.605712890625,83.27392578125,4.72607421875
3.668701171875,4.331298828125,87.2998046875,8.7001953125
8.283447265625,7.716552734375,81.7509765625,2.2490234375
6.073486328125,1.926513671875,70.6552734375,-10.6552734375
22.2578125,13.7421875,77.91015625,-5.91015625
9.829833984375,-1.829833984375,87.33544921875,0.66455078125
12.08056640625,-0.08056640625,92.732421875,3.267578125
10.9775390625,1.0224609375,93.91015625,2.08984375
19.19140625,12.80859375,94.68408203125,1.31591796875
7.755615234375,4.244384765625,94.90087890625,1.09912109375
21.530029296875,18.469970703125,80.4951171875,-12.4951171875
22.75341796875,17.24658203125,81.54638671875,-9.54638671875
10.913818359375,1.086181640625,74.28173828125,-14.28173828125
15.012451171875,0.987548828125,81.013671875,-5.013671875
12.08740234375,-4.08740234375,76.06689453125,-8.06689453125
15.72216796875,0.27783203125,79.70849609375,-3.70849609375
12.287841796875,-0.287841796875,82.05419921875,-2.05419921875
8.839111328125,-0.839111328125,80.94091796875,-4.94091796875
10.759765625,1.240234375,77.82177734375,-9.82177734375
13.32666015625,-1.32666015625,81.82080078125,-5.82080078125
29.3212890625,2.6787109375,83.966796875,0.033203125
24.80419921875,-20.80419921875,87.5556640625,12.4443359375
49.136474609375,-21.136474609375,60.4892578125,-0.4892578125
65.244384765625,-33.244384765625,51.42822265625,8.57177734375
83.974609375,-43.974609375,59.6865234375,36.3134765625
80.34375,-76.34375,36.8623046875,31.1376953125
101.59521484375,-81.59521484375,26.32275390625,33.67724609375
113.141845703125,-93.141845703125,24.78466796875,39.21533203125
120.551513671875,-104.551513671875,34.15869140625,49.84130859375
127.5966796875,-111.5966796875,33.69189453125,46.30810546875
132.29052734375,-116.29052734375,38.2861328125,45.7138671875
140.843017578125,-112.843017578125,40.8359375,43.1640625
145.5625,-109.5625,38.49658203125,37.50341796875
132.783935546875,-120.783935546875,48.8623046875,47.1376953125
142.8466796875,-106.8466796875,34.009765625,33.990234375
128.135498046875,-116.135498046875,48.3984375,51.6015625
121.115966796875,-117.115966796875,38.64306640625,45.35693359375
126.265380859375,-106.265380859375,27.24462890625,36.75537109375
127.888671875,-99.888671875,42.42333984375,53.57666015625
125.940185546875,-97.940185546875,38.11328125,49.88671875
112.040283203125,-108.040283203125,30.0849609375,41.9150390625
113.7333984375,-101.7333984375,44.12109375,55.87890625
110.806640625,-98.806640625,30.12255859375,41.87744140625
121.43408203125,-81.43408203125,44.12890625,55.87109375
110.064208984375,-86.064208984375,42.25,53.75
105.165771484375,-85.165771484375,36.55810546875,47.44189453125
111.017578125,-75.017578125,27.01708984375,36.98291015625
101.65283203125,-81.65283203125,45.490234375,54.509765625
102.92041015625,-78.92041015625,25.822265625,34.177734375
96.57080078125,-84.57080078125,31.9345703125,40.0654296875
92.28369140625,-88.28369140625,37.8662109375,46.1337890625
97.70166015625,-81.70166015625,39.740234375,48.259765625
92.55078125,-84.55078125,39.66015625,48.33984375
96.806884765625,-76.806884765625,37.60986328125,46.39013671875
102.781982421875,-66.781982421875,39.4189453125,48.5810546875
87.013916015625,-79.013916015625,36.8515625,47.1484375
83.999267578125,-79.999267578125,31.7705078125,44.2294921875
101.902587890625,-61.902587890625,40.28466796875,55.71533203125
88.430419921875,-76.430419921875,30.7666015625,49.2333984375
102.95166015625,-62.95166015625,33.705078125,54.294921875
92.824462890625,-72.824462890625,33.45458984375,54.54541015625
83.755859375,-79.755859375,40.02490234375,59.97509765625
97.979248046875,-61.979248046875,39.0556640625,56.9443359375
82.115234375,-74.115234375,35.99755859375,52.00244140625
94.809326171875,-58.809326171875,26.40234375,41.59765625
94.377197265625,-58.377197265625,38.13720703125,53.86279296875
82.68115234375,-70.68115234375,39.41162109375,56.58837890625
87.258056640625,-67.258056640625,34.623046875,53.376953125
91.586669921875,-63.586669921875,30.13671875,49.86328125
81.3310546875,-73.3310546875,24.12060546875,43.87939453125
78.449462890625,-74.449462890625,30.49755859375,49.50244140625
81.12060546875,-69.12060546875,31.0146484375,48.9853515625
91.583984375,-55.583984375,29.3828125,46.6171875
80.018798828125,-64.018798828125,33.421875,50.578125
80.52490234375,-60.52490234375,31.12353515625,48.87646484375
75.156005859375,-63.156005859375,36.6201171875,55.3798828125
71.9638671875,-63.9638671875,40.078125,59.921875
69.03271484375,-65.03271484375,31.62841796875,52.37158203125
68.473388671875,-64.473388671875,21.33544921875,42.66455078125
68.36279296875,-64.36279296875,39.21875,60.78125
68.666748046875,-64.666748046875,29.2724609375,50.7275390625
75.208740234375,-59.208740234375,37.48876953125,58.51123046875
85.69873046875,-49.69873046875,35.86572265625,56.13427734375
71.819580078125,-63.819580078125,28.3935546875,47.6064453125
73.338623046875,-61.338623046875,29.0146484375,46.9853515625
70.2236328125,-62.2236328125,23.595703125,40.404296875
68.710205078125,-60.710205078125,41.96142578125,58.03857421875
83.253662109375,-43.253662109375,31.96923828125,48.03076171875
68.353515625,-56.353515625,25.607421875,42.392578125
64.32177734375,-60.32177734375,33.037109375,50.962890625
77.109375,-49.109375,22.52392578125,41.47607421875
82.301513671875,-46.301513671875,34.30126953125,53.69873046875
79.31103515625,-51.31103515625,28.42919921875,47.57080078125
71.683837890625,-59.683837890625,40.74755859375,59.25244140625
77.343017578125,-53.343017578125,20.93994140625,39.06005859375
70.615478515625,-58.615478515625,32.6748046875,51.3251953125
82.012451171875,-46.012451171875,21.77490234375,42.22509765625
75.908203125,-51.908203125,32.33251953125,55.66748046875
70.330078125,-58.330078125,36.71728515625,63.28271484375
68.98583984375,-60.98583984375,25.4375,54.5625
77.478759765625,-53.478759765625,24.888671875,55.111328125
79.537353515625,-51.537353515625,29.12158203125,58.87841796875
83.116943359375,-47.116943359375,29.77783203125,58.22216796875
76.346923828125,-52.346923828125,32.275390625,59.724609375
77.430908203125,-49.430908203125,24.1201171875,51.8798828125
76.593994140625,-48.593994140625,35.1826171875,64.8173828125
66.074462890625,-58.074462890625,31.76416015625,64.23583984375
76.08203125,-48.08203125,20.41748046875,55.58251953125
66.650390625,-58.650390625,13.65087890625,50.34912109375
79.486328125,-47.486328125,13.68115234375,50.31884765625
71.994873046875,-55.994873046875,12.3935546875,47.6064453125
71.549072265625,-55.549072265625,19.4853515625,52.5146484375
75.867919921875,-47.867919921875,24.67138671875,55.32861328125
73.234130859375,-45.234130859375,29.77587890625,58.22412109375
62.414794921875,-50.414794921875,34.70654296875,61.29345703125
60.31103515625,-48.31103515625,33.40380859375,58.59619140625
63.53662109375,-43.53662109375,21.84423828125,46.15576171875
70.159423828125,-38.159423828125,26.087890625,49.912109375
63.717041015625,-47.717041015625,20.2578125,43.7421875
61.470703125,-53.470703125,22.4501953125,45.5498046875
68.7041015625,-48.7041015625,18.671875,41.328125
76.947509765625,-40.947509765625,18.86279296875,41.13720703125
70.077392578125,-46.077392578125,38.97607421875,61.02392578125
70.345947265625,-42.345947265625,23.04052734375,44.95947265625
56.327392578125,-52.327392578125,27.1484375,48.8515625
64.74853515625,-40.74853515625,23.37939453125,44.62060546875
56.198486328125,-48.198486328125,29.70654296875,50.29345703125
68.84033203125,-36.84033203125,23.9638671875,44.0361328125
58.306640625,-50.306640625,35.904296875,56.095703125
65.8759765625,-45.8759765625,19.34423828125,40.65576171875
66.8603515625,-46.8603515625,18.3037109375,41.6962890625
72.953369140625,-40.953369140625,33.05029296875,58.94970703125
66.306640625,-46.306640625,30.00537109375,57.99462890625
63.320556640625,-47.320556640625,15.564453125,44.435546875
74.33935546875,-34.33935546875,17.91162109375,46.08837890625
67.485595703125,-39.485595703125,30.91845703125,57.08154296875
62.72265625,-42.72265625,36.1767578125,59.8232421875
60.044677734375,-44.044677734375,33.16064453125,54.83935546875
69.608642578125,-33.608642578125,27.45068359375,48.54931640625
59.689453125,-43.689453125,32.9208984375,55.0791015625
70.463623046875,-34.463623046875,29.7666015625,54.2333984375
69.777587890625,-37.777587890625,18.3837890625,45.6162109375
71.103271484375,-39.103271484375,27.1875,56.8125
59.7783203125,-51.7783203125,24.4501953125,55.5498046875
71.4189453125,-39.4189453125,26.21826171875,57.78173828125
74.212890625,-34.212890625,22.34130859375,53.65869140625
72.860107421875,-32.860107421875,32.57177734375,63.42822265625
64.17431640625,-40.17431640625,22.72265625,53.27734375
62.6015625,-42.6015625,18.7802734375,49.2197265625
63.958251953125,-43.958251953125,34.90478515625,65.09521484375
63.520263671875,-47.520263671875,35.28271484375,64.71728515625
74.39990234375,-38.39990234375,23.90380859375,52.09619140625
61.99853515625,-49.99853515625,24.4462890625,51.5537109375
74.317138671875,-34.317138671875,34.38623046875,61.61376953125
59.967041015625,-43.967041015625,31.29931640625,60.70068359375
61.8857421875,-37.8857421875,17.189453125,50.810546875
68.909423828125,-28.909423828125,10.6005859375,49.3994140625
57.4052734375,-41.4052734375,10.40625,53.59375
61.12060546875,-41.12060546875,9.3935546875,54.6064453125
57.27587890625,-49.27587890625,13.87158203125,58.12841796875
56.8740234375,-52.8740234375,27.52734375,68.47265625
73.120849609375,-37.120849609375,13.5830078125,50.4169921875
71.8076171875,-35.8076171875,31.146484375,64.853515625
67.466064453125,-35.466064453125,17.5986328125,50.4013671875
61.16650390625,-37.16650390625,16.85791015625,51.14208984375
64.007080078125,-32.007080078125,11.4130859375,48.5869140625
62.56005859375,-34.56005859375,10.1005859375,49.8994140625
54.594482421875,-46.594482421875,29.7158203125,70.2841796875
71.21826171875,-35.21826171875,22.61865234375,61.38134765625
69.334716796875,-41.334716796875,26.54833984375,61.45166015625
64.154296875,-48.154296875,26.7705078125,57.2294921875
57.525146484375,-53.525146484375,18.45751953125,45.54248046875
63.948486328125,-43.948486328125,17.07958984375,42.92041015625
72.30419921875,-32.30419921875,28.58056640625,55.41943359375
53.426025390625,-49.426025390625,33.294921875,62.705078125
63.74267578125,-39.74267578125,19.70166015625,52.29833984375
69.140625,-37.140625,20.20654296875,55.79345703125
57.07958984375,-53.07958984375,29.0615234375,66.9384765625
58.869873046875,-54.869873046875,24.3994140625,63.6005859375
65.978759765625,-49.978759765625,20.30224609375,59.69775390625
74.22802734375,-42.22802734375,16.78515625,55.21484375
75.8173828125,-39.8173828125,31.73486328125,68.26513671875
77.18212890625,-37.18212890625,14.865234375,49.134765625
62.79150390625,-50.79150390625,23.7626953125,56.2373046875
66.95166015625,-46.95166015625,16.0205078125,47.9794921875
69.67578125,-45.67578125,15.4091796875,48.5908203125
72.663818359375,-44.663818359375,28.00048828125,63.99951171875
79.431640625,-39.431640625,30.1767578125,69.8232421875
69.585205078125,-49.585205078125,26.49658203125,69.50341796875
69.088134765625,-49.088134765625,15.470703125,60.529296875
60.361572265625,-56.361572265625,11.3427734375,56.6572265625
74.096435546875,-42.096435546875,19.99951171875,64.00048828125
64.85009765625,-52.85009765625,25.0556640625,66.9443359375
74.640380859375,-46.640380859375,26.0634765625,65.9365234375
68.821044921875,-56.821044921875,26.71337890625,65.28662109375
74.357666015625,-54.357666015625,24.93310546875,63.06689453125
74.383544921875,-54.383544921875,14.830078125,53.169921875
72.71728515625,-52.71728515625,12.57470703125,51.42529296875
66.013427734375,-54.013427734375,28.31201171875,67.68798828125
65.457275390625,-49.457275390625,22.130859375,61.869140625
74.162353515625,-38.162353515625,28.07421875,67.92578125
72.627197265625,-40.627197265625,30.1357421875,69.8642578125
66.537841796875,-50.537841796875,30.28125,69.71875
64.989501953125,-56.989501953125,18.47265625,57.52734375
80.946533203125,-44.946533203125,18.69970703125,57.30029296875
67.68994140625,-59.68994140625,18.990234375,57.009765625
75.084228515625,-51.084228515625,23.37744140625,60.62255859375
73.589111328125,-49.589111328125,23.857421875,60.142578125
79.99951171875,-39.99951171875,30.3662109375,65.6337890625
75.03857421875,-43.03857421875,14.79052734375,49.20947265625
75.02001953125,-43.02001953125,31.02880859375,64.97119140625
61.760498046875,-57.760498046875,17.0576171875,50.9423828125
70.76708984375,-50.76708984375,16.95849609375,51.04150390625
81.545654296875,-41.545654296875,14.88134765625,49.11865234375
67.869140625,-55.869140625,18.94775390625,53.05224609375
73.866943359375,-49.866943359375,21.1787109375,54.8212890625
71.896484375,-51.896484375,23.47509765625,56.52490234375
80.264404296875,-44.264404296875,13.65576171875,46.34423828125
81.000244140625,-45.000244140625,29.55224609375,62.44775390625
71.8505859375,-55.8505859375,29.1005859375,62.8994140625
76.48974609375,-52.48974609375,24.396484375,59.603515625
72.759765625,-56.759765625,21.671875,58.328125
78.760498046875,-50.760498046875,19.18994140625,56.81005859375
82.73876953125,-46.73876953125,19.099609375,56.900390625
72.89306640625,-56.89306640625,25.35791015625,62.64208984375
71.25,-59.25,21.75146484375,58.24853515625
85.69873046875,-45.69873046875,14.00048828125,49.99951171875
80.135498046875,-52.135498046875,15.90185546875,52.09814453125
70.581787109375,-62.581787109375,25.4306640625,62.5693359375
73.16162109375,-61.16162109375,16.771484375,55.228515625
83.95751953125,-51.95751953125,14.24169921875,53.75830078125
88.89111328125,-48.89111328125,30.13427734375,69.86572265625
71.7431640625,-67.7431640625,14.5478515625,53.4521484375
74.28173828125,-66.28173828125,29.3115234375,66.6884765625
74.402099609375,-66.402099609375,14.0712890625,49.9287109375
76.1865234375,-64.1865234375,20.47900390625,55.52099609375
89.85546875,-49.85546875,26.3740234375,61.6259765625
79.6357421875,-59.6357421875,11.8369140625,48.1630859375
75.63818359375,-63.63818359375,19.1044921875,56.8955078125
83.829833984375,-55.829833984375,26.3955078125,65.6044921875
72.087646484375,-68.087646484375,25.80712890625,66.19287109375
78.26904296875,-62.26904296875,21.32958984375,62.67041015625
82.249267578125,-58.249267578125,18.94873046875,61.05126953125
71.964599609375,-67.964599609375,10.73046875,53.26953125
89.46337890625,-49.46337890625,12.80126953125,55.19873046875
76.930908203125,-60.930908203125,27.2314453125,68.7685546875
78.6357421875,-58.6357421875,13.94873046875,54.05126953125
74.8115234375,-62.8115234375,14.72705078125,53.27294921875
75.542724609375,-63.542724609375,23.29541015625,60.70458984375
74.69970703125,-66.69970703125,13.4765625,50.5234375
79.94775390625,-63.94775390625,27.2841796875,64.7158203125
84.85302734375,-60.85302734375,18.908203125,57.091796875
85.05810546875,-61.05810546875,30.59375,69.40625
78.4755859375,-66.4755859375,22.474609375,61.525390625
81.38525390625,-61.38525390625,12.490234375,51.509765625
82.33154296875,-58.33154296875,24.42724609375,63.57275390625
79.85693359375,-59.85693359375,26.06787109375,65.93212890625
74.2021484375,-66.2021484375,13.3544921875,54.6455078125
91.144775390625,-51.144775390625,20.4560546875,63.5439453125
82.06787109375,-62.06787109375,27.69287109375,72.30712890625
88.27392578125,-56.27392578125,15.36865234375,60.63134765625
83.420166015625,-59.420166015625,13.59326171875,58.40673828125
79.8291015625,-59.8291015625,24.23486328125,67.76513671875
74.4130859375,-62.4130859375,22.998046875,65.001953125
76.183349609375,-60.183349609375,29.5888671875,70.4111328125
75.5830078125,-63.5830078125,15.845703125,56.154296875
78.091796875,-66.091796875,9.78173828125,50.21826171875
86.4287109375,-62.4287109375,11.54931640625,52.45068359375
79.29248046875,-71.29248046875,9.3564453125,50.6435546875
92.18701171875,-56.18701171875,25.376953125,66.623046875
91.770263671875,-51.770263671875,9.6669921875,50.3330078125
89.464111328125,-49.464111328125,26.12841796875,65.87158203125
70.559326171875,-66.559326171875,10.54833984375,49.45166015625
71.42626953125,-67.42626953125,28.71826171875,67.28173828125
81.361572265625,-61.361572265625,30.58154296875,69.41845703125
93.132568359375,-53.132568359375,20.30322265625,59.69677734375
91.79345703125,-55.79345703125,30.19921875,69.80078125
91.232421875,-55.232421875,14.52783203125,53.47216796875
80.156494140625,-64.156494140625,21.29345703125,58.70654296875
73.62451171875,-69.62451171875,16.2060546875,51.7939453125
82.48876953125,-62.48876953125,14.81689453125,49.18310546875
83.076171875,-67.076171875,14.759765625,49.240234375
85.191650390625,-73.191650390625,23.96337890625,60.03662109375
104.339599609375,-64.339599609375,12.71240234375,51.28759765625
101.9609375,-77.9609375,21.53173828125,62.46826171875
103.611572265625,-87.611572265625,22.93359375,65.06640625
103.05712890625,-99.05712890625,21.1640625,62.8359375
114.305419921875,-98.305419921875,16.05615234375,55.94384765625
125.5712890625,-97.5712890625,27.083984375,64.916015625
125.194580078125,-109.194580078125,17.60986328125,54.39013671875
131.496826171875,-115.496826171875,13.19677734375,50.80322265625
150.604248046875,-110.604248046875,17.826171875,58.173828125
144.296875,-132.296875,27.88916015625,72.11083984375
154.03369140625,-138.03369140625,18.0087890625,65.9912109375
157.22412109375,-149.22412109375,24.80029296875,75.19970703125
163.66455078125,-155.66455078125,18.689453125,69.310546875
167.912109375,-163.912109375,21.82666015625,70.17333984375
189.416259765625,-157.416259765625,14.0595703125,57.9404296875
192.288330078125,-176.288330078125,16.9443359375,55.0556640625
218.69873046875,-182.69873046875,31.7939453125,64.2060546875
232.049072265625,-216.049072265625,19.80029296875,48.19970703125
260.286376953125,-248.286376953125,16.26123046875,43.73876953125
309.76806640625,-269.76806640625,26.86865234375,57.13134765625
333.779541015625,-321.779541015625,25.89990234375,62.10009765625
367.390869140625,-363.390869140625,10.169921875,53.830078125
416.230224609375,-384.230224609375,22.70947265625,73.29052734375
444.90283203125,-416.90283203125,4.337890625,59.662109375
469.010498046875,-445.010498046875,1.37548828125,58.62451171875
484.868408203125,-472.868408203125,17.60107421875,74.39892578125
501.09521484375,-493.09521484375,20.4599609375,75.5400390625
532.2998046875,-492.2998046875,15.34619140625,68.65380859375
530.98486328125,-518.98486328125,13.814453125,66.185546875
547.588623046875,-523.588623046875,9.65380859375,62.34619140625
552.50537109375,-536.50537109375,16.84814453125,71.15185546875
566.063720703125,-538.063720703125,1.5166015625,58.4833984375
568.55126953125,-548.55126953125,17.8828125,78.1171875
578.3203125,-550.3203125,0.26611328125,63.73388671875
579.809326171875,-559.809326171875,1.02978515625,66.97021484375
579.34521484375,-571.34521484375,0.4599609375,67.5400390625
600.84375,-560.84375,14.61279296875,81.38720703125
587.72021484375,-583.72021484375,13.23583984375,78.76416015625
603.1904296875,-575.1904296875,-0.1591796875,64.1591796875
598.802734375,-582.802734375,9.95849609375,74.04150390625
598.8349609375,-582.8349609375,7.421875,72.578125
598.24951171875,-582.24951171875,6.51025390625,73.48974609375
602.193603515625,-578.193603515625,13.79443359375,82.20556640625
611.35009765625,-571.35009765625,11.7607421875,80.2392578125
599.57177734375,-587.57177734375,-1.54150390625,65.54150390625
615.99267578125,-575.99267578125,3.41845703125,68.58154296875
611.47412109375,-583.47412109375,11.9228515625,76.0771484375
609.03759765625,-585.03759765625,-2.5576171875,62.5576171875
604.075927734375,-584.075927734375,15.947265625,84.052734375
600.371337890625,-576.371337890625,9.884765625,82.115234375
590.063232421875,-570.063232421875,-0.11474609375,76.11474609375
587.616455078125,-551.616455078125,-1.5810546875,77.5810546875
563.740234375,-551.740234375,-0.36279296875,80.36279296875
547.18701171875,-543.18701171875,-10.55712890625,70.55712890625
544.459228515625,-520.459228515625,-8.34423828125,72.34423828125
529.55419921875,-509.55419921875,-9.857421875,69.857421875
513.924072265625,-497.924072265625,8.84033203125,87.15966796875
494.747802734375,-486.747802734375,3.72265625,80.27734375
479.420166015625,-467.420166015625,-3.2314453125,71.2314453125
474.01611328125,-434.01611328125,11.97509765625,84.02490234375
451.45751953125,-415.45751953125,7.38232421875,76.61767578125
425.2578125,-401.2578125,17.07421875,82.92578125
402.92138671875,-386.92138671875,11.12744140625,72.87255859375
387.28564453125,-371.28564453125,13.5126953125,70.4873046875
380.163330078125,-352.163330078125,24.01318359375,75.98681640625
358.48388671875,-350.48388671875,26.240234375,73.759765625
360.834716796875,-324.834716796875,15.767578125,60.232421875
350.109619140625,-310.109619140625,28.3369140625,71.6630859375
325.957275390625,-305.957275390625,13.99951171875,58.00048828125
308.845458984375,-292.845458984375,11.1259765625,56.8740234375
289.757568359375,-281.757568359375,14.24853515625,61.75146484375
281.72216796875,-261.72216796875,11.8251953125,60.1748046875
267.421875,-251.421875,12.01171875,59.98828125
265.011962890625,-233.011962890625,20.59326171875,67.40673828125
258.11962890625,-222.11962890625,19.13623046875,64.86376953125
235.979248046875,-227.979248046875,19.2587890625,64.7412109375
239.6982421875,-207.6982421875,16.85791015625,63.14208984375
226.605224609375,-202.605224609375,10.11962890625,57.88037109375
210.542236328125,-198.542236328125,19.3515625,68.6484375
197.937255859375,-189.937255859375,6.77685546875,57.22314453125
191.612060546875,-175.612060546875,24.43603515625,75.56396484375
180.4208984375,-168.4208984375,24.2314453125,75.7685546875
168.87939453125,-164.87939453125,20.0439453125,71.9560546875
174.9306640625,-146.9306640625,3.8212890625,56.1787109375
165.958740234375,-145.958740234375,17.6064453125,70.3935546875
163.070068359375,-139.070068359375,3.49560546875,56.50439453125
151.540283203125,-139.540283203125,21.560546875,74.439453125
153.213623046875,-125.213623046875,13.77490234375,66.22509765625
150.638427734375,-114.638427734375,18.01220703125,69.98779296875
128.826904296875,-124.826904296875,4.1220703125,55.8779296875
134.72998046875,-110.72998046875,24.0439453125,75.9560546875
122.679443359375,-118.679443359375,9.88623046875,62.11376953125
130.097412109375,-110.097412109375,17.89013671875,70.10986328125
127.685791015625,-111.685791015625,22.302734375,73.697265625
126.0302734375,-110.0302734375,25.22802734375,74.77197265625
118.31201171875,-110.31201171875,16.52294921875,63.47705078125
118.738037109375,-98.738037109375,21.81787109375,66.18212890625
106.474365234375,-98.474365234375,20.66259765625,63.33740234375
105.127685546875,-89.127685546875,28.76025390625,71.23974609375
106.00439453125,-82.00439453125,12.1435546875,55.8564453125
95.465087890625,-91.465087890625,23.20654296875,68.79345703125
98.701171875,-90.701171875,16.546875,63.453125
110.08740234375,-82.08740234375,12.69140625,59.30859375
109.989990234375,-81.989990234375,9.810546875,54.189453125
109.589599609375,-77.589599609375,9.58447265625,50.41552734375
97.267333984375,-81.267333984375,15.29638671875,52.70361328125
98.370849609375,-70.370849609375,14.1630859375,49.8369140625
84.521240234375,-76.521240234375,29.7177734375,66.2822265625
94.831787109375,-62.831787109375,18.06640625,57.93359375
85.388916015625,-73.388916015625,19.853515625,64.146484375
91.22900390625,-71.22900390625,13.9892578125,62.0107421875
92.799560546875,-72.799560546875,11.23583984375,60.76416015625
100.684326171875,-64.684326171875,19.88330078125,68.11669921875
84.24755859375,-76.24755859375,19.65234375,64.34765625
79.899658203125,-71.899658203125,19.86181640625,60.13818359375
72.90625,-68.90625,17.7587890625,54.2412109375
80.860595703125,-52.860595703125,20.83349609375,55.16650390625
83.050537109375,-47.050537109375,20.96484375,55.03515625
73.931640625,-57.931640625,16.36474609375,51.63525390625
84.9013671875,-52.9013671875,27.3974609375,64.6025390625
82.48681640625,-62.48681640625,16.39501953125,55.60498046875
82.9228515625,-66.9228515625,21.5595703125,62.4404296875
86.906982421875,-62.906982421875,22.974609375,65.025390625
80.1875,-64.1875,16.66748046875,59.33251953125
79.6875,-55.6875,18.66162109375,61.33837890625
75.086181640625,-51.086181640625,18.96826171875,61.03173828125
66.06103515625,-54.06103515625,27.52880859375,68.47119140625
67.534912109375,-51.534912109375,14.17724609375,53.82275390625
75.294189453125,-47.294189453125,14.6826171875,53.3173828125
84.16845703125,-44.16845703125,22.8564453125,61.1435546875
84.671630859375,-48.671630859375,10.66552734375,49.33447265625
87.731201171875,-47.731201171875,26.25537109375,65.74462890625
85.09326171875,-49.09326171875,15.88525390625,56.11474609375
75.245361328125,-55.245361328125,21.78369140625,62.21630859375
65.013427734375,-61.013427734375,16.02734375,55.97265625
75.125732421875,-47.125732421875,28.51513671875,67.48486328125
63.9716796875,-55.9716796875,27.04443359375,64.95556640625
63.597412109375,-55.597412109375,17.4384765625,54.5615234375
77.843017578125,-41.843017578125,27.64013671875,64.35986328125
66.49853515625,-54.49853515625,19.7294921875,56.2705078125
67.38427734375,-55.38427734375,19.853515625,56.146484375
82.345703125,-42.345703125,26.1162109375,61.8837890625
65.222900390625,-61.222900390625,22.50146484375,57.49853515625
79.8408203125,-47.8408203125,22.86376953125,57.13623046875
82.0361328125,-46.0361328125,28.9775390625,63.0224609375
73.71044921875,-53.71044921875,12.64111328125,47.35888671875
78.893798828125,-46.893798828125,25.7958984375,62.2041015625
71.798095703125,-51.798095703125,18.61865234375,57.38134765625
70.791015625,-50.791015625,9.5166015625,50.4833984375
68.25732421875,-52.25732421875,10.994140625,53.005859375
70.406982421875,-50.406982421875,25.42041015625,66.57958984375
75.140625,-47.140625,30.8203125,69.1796875
80.064208984375,-44.064208984375,22.814453125,57.185546875
76.649169921875,-48.649169921875,16.74658203125,47.25341796875
76.459716796875,-48.459716796875,29.96337890625,58.03662109375
81.349365234375,-41.349365234375,18.08642578125,45.91357421875
61.523681640625,-57.523681640625,31.16943359375,60.83056640625
77.45654296875,-37.45654296875,23.66748046875,56.33251953125
57.72216796875,-53.72216796875,28.2490234375,63.7509765625
56.837646484375,-52.837646484375,23.52490234375,60.47509765625
63.139404296875,-47.139404296875,21.79443359375,58.20556640625
64.667724609375,-48.667724609375,20.90380859375,55.09619140625
61.06591796875,-57.06591796875,24.30517578125,55.69482421875
79.594970703125,-43.594970703125,27.3212890625,56.6787109375
83.354248046875,-43.354248046875,23.48681640625,52.51318359375
73.67919921875,-53.67919921875,30.783203125,61.216796875
80.51416015625,-44.51416015625,19.63232421875,52.36767578125
62.510009765625,-58.510009765625,28.63818359375,63.36181640625
78.745849609375,-38.745849609375,20.26611328125,55.73388671875
62.1796875,-54.1796875,18.6357421875,53.3642578125
79.13037109375,-39.13037109375,13.5400390625,46.4599609375
69.076171875,-53.076171875,32.6376953125,63.3623046875
70.90234375,-54.90234375,27.640625,56.359375
77.473388671875,-49.473388671875,26.39697265625,53.60302734375
70.232177734375,-54.232177734375,18.88037109375,45.11962890625
69.520751953125,-49.520751953125,31.1513671875,56.8486328125
76.462158203125,-36.462158203125,37.33056640625,62.66943359375
70.4384765625,-38.4384765625,33.53955078125,58.46044921875
72.4140625,-36.4140625,21.81298828125,46.18701171875
64.441650390625,-48.441650390625,28.05029296875,51.94970703125
63.64453125,-55.64453125,22.0732421875,45.9267578125
82.691650390625,-42.691650390625,19.77587890625,44.22412109375
70.48779296875,-58.48779296875,19.2431640625,44.7568359375
78.67041015625,-50.67041015625,18.74560546875,45.25439453125
65.6455078125,-61.6455078125,26.56689453125,53.43310546875
66.216064453125,-58.216064453125,24.8056640625,51.1943359375
77.107666015625,-45.107666015625,31.3076171875,56.6923828125
64.671875,-56.671875,37.78125,62.21875
74.8486328125,-46.8486328125,24.01904296875,47.98095703125
75.292724609375,-47.292724609375,32.00634765625,55.99365234375
73.560791015625,-49.560791015625,37.87353515625,62.12646484375
77.2998046875,-45.2998046875,23.7578125,48.2421875
64.40283203125,-56.40283203125,17.72216796875,42.27783203125
71.089111328125,-47.089111328125,27.8076171875,52.1923828125
59.845458984375,-55.845458984375,38.130859375,61.869140625
67.21533203125,-47.21533203125,34.8935546875,57.1064453125
67.51220703125,-47.51220703125,22.2587890625,41.7412109375
78.619873046875,-38.619873046875,34.16162109375,49.83837890625
70.013916015625,-50.013916015625,30.22900390625,41.77099609375
73.0205078125,-49.0205078125,45.8876953125,54.1123046875
65.1484375,-57.1484375,26.626953125,33.373046875
76.316162109375,-44.316162109375,32.27783203125,39.72216796875
70.865966796875,-46.865966796875,37.1240234375,46.8759765625
71.3994140625,-43.3994140625,35.7734375,48.2265625
72.548095703125,-40.548095703125,30.84375,45.15625
60.769775390625,-52.769775390625,30.6513671875,45.3486328125
64.181884765625,-52.181884765625,33.08740234375,46.91259765625
80.43994140625,-40.43994140625,39.74365234375,52.25634765625
76.761962890625,-48.761962890625,42.19482421875,53.80517578125
70.1953125,-58.1953125,26.25390625,37.74609375
84.05859375,-44.05859375,26.0576171875,37.9423828125
66.2998046875,-58.2998046875,41.92822265625,54.07177734375
61.551513671875,-57.551513671875,34.1552734375,45.8447265625
66.85546875,-46.85546875,24.8212890625,35.1787109375
69.22216796875,-41.22216796875,35.75830078125,44.24169921875
73.222412109375,-37.222412109375,36.642578125,43.357421875
74.77490234375,-38.77490234375,41.14599609375,46.85400390625
71.195068359375,-47.195068359375,39.0791015625,44.9208984375
69.47509765625,-53.47509765625,34.44677734375,41.55322265625
66.669189453125,-58.669189453125,41.4404296875,50.5595703125
72.237548828125,-52.237548828125,34.38525390625,45.61474609375
76.23779296875,-44.23779296875,31.64599609375,44.35400390625
63.30859375,-51.30859375,43.50341796875,56.49658203125
58.443603515625,-50.443603515625,44.0283203125,55.9716796875
58.59375,-46.59375,27.02587890625,36.97412109375
60.26513671875,-44.26513671875,40.12060546875,47.87939453125
59.30859375,-47.30859375,36.923828125,43.076171875
71.056884765625,-39.056884765625,29.19580078125,34.80419921875
68.71826171875,-44.71826171875,44.93017578125,51.06982421875
67.765869140625,-47.765869140625,30.30908203125,37.69091796875
72.08544921875,-44.08544921875,45.59521484375,54.40478515625
71.847412109375,-43.847412109375,40.99658203125,51.00341796875
73.28662109375,-41.28662109375,38.5810546875,49.4189453125
76.579833984375,-36.579833984375,24.29443359375,35.70556640625
73.851806640625,-37.851806640625,24.04296875,35.95703125
63.25146484375,-47.25146484375,23.8154296875,36.1845703125
58.983642578125,-50.983642578125,43.71533203125,56.28466796875
73.238037109375,-37.238037109375,37.88916015625,50.11083984375
72.065185546875,-40.065185546875,36.4033203125,47.5966796875
65.296630859375,-49.296630859375,43.15380859375,52.84619140625
68.60791015625,-48.60791015625,39.90625,48.09375
69.657958984375,-49.657958984375,42.41943359375,49.58056640625
62.201904296875,-58.201904296875,36.58837890625,43.41162109375
78.1201171875,-42.1201171875,42.50634765625,49.49365234375
71.416748046875,-47.416748046875,38.40576171875,45.59423828125
74.243408203125,-42.243408203125,40.51025390625,47.48974609375
74.9169921875,-38.9169921875,30.873046875,37.126953125
65.859619140625,-45.859619140625,43.3359375,48.6640625
61.454833984375,-49.454833984375,29.630859375,34.369140625
63.8994140625,-47.8994140625,45.5771484375,50.4228515625
59.124267578125,-55.124267578125,45.2177734375,50.7822265625
74.812255859375,-42.812255859375,32.8017578125,39.1982421875
64.484375,-56.484375,36.62353515625,43.37646484375
69.630126953125,-53.630126953125,30.84765625,37.15234375
73.8876953125,-49.8876953125,43.427734375,48.572265625
67.22412109375,-55.22412109375,42.16162109375,45.83837890625
72.01220703125,-48.01220703125,32.83203125,35.16796875
66.89501953125,-50.89501953125,43.33056640625,44.66943359375
66.4814453125,-50.4814453125,45.67919921875,46.32080078125
73.031494140625,-45.031494140625,43.9560546875,44.0439453125
78.338134765625,-42.338134765625,44.2109375,43.7890625
81.866455078125,-41.866455078125,44.43017578125,43.56982421875
79.060302734375,-47.060302734375,36.5625,35.4375
65.6083984375,-61.6083984375,48.57275390625,47.42724609375
65.521728515625,-61.521728515625,40.4541015625,39.5458984375
73.01904296875,-53.01904296875,50.21875,49.78125
64.352783203125,-60.352783203125,43.88818359375,44.11181640625
81.713134765625,-41.713134765625,49.52099609375,50.47900390625
69.23291015625,-53.23291015625,39.248046875,40.751953125
81.012939453125,-41.012939453125,45.25927734375,46.74072265625
67.103271484375,-55.103271484375,49.71533203125,50.28466796875
77.471435546875,-45.471435546875,44.61376953125,43.38623046875
78.006591796875,-46.006591796875,31.72998046875,28.27001953125
78.578857421875,-46.578857421875,42.6845703125,37.3154296875
83.100341796875,-43.100341796875,39.130859375,32.869140625
77.517333984375,-49.517333984375,32.9501953125,27.0498046875
71.730712890625,-55.730712890625,38.33837890625,33.66162109375
83.537109375,-43.537109375,39.71142578125,36.28857421875
68.70703125,-56.70703125,33.4716796875,30.5283203125
75.167724609375,-47.167724609375,37.78466796875,34.21533203125
63.153076171875,-55.153076171875,36.5068359375,31.4931640625
73.1953125,-41.1953125,47.2978515625,40.7021484375
57.95654296875,-53.95654296875,35.82958984375,28.17041015625
67.964111328125,-43.964111328125,53.94775390625,46.05224609375
69.33203125,-45.33203125,33.71533203125,26.28466796875
67.598388671875,-51.598388671875,41.337890625,34.662109375
67.820068359375,-55.820068359375,53.04736328125,46.95263671875
82.95654296875,-42.95654296875,35.00146484375,28.99853515625
78.400634765625,-46.400634765625,35.240234375,28.759765625
62.35546875,-58.35546875,43.69482421875,36.30517578125
61.8232421875,-53.8232421875,36.20947265625,27.79052734375
76.1708984375,-36.1708984375,50.5927734375,41.4072265625
76.4912109375,-36.4912109375,52.70556640625,43.29443359375
69.073486328125,-49.073486328125,34.54541015625,25.45458984375
79.2216796875,-47.2216796875,54.28076171875,45.71923828125
87.48779296875,-47.48779296875,46.15966796875,37.84033203125
72.240478515625,-68.240478515625,44.35205078125,35.64794921875
86.359619140625,-54.359619140625,38.83544921875,29.16455078125
79.745361328125,-55.745361328125,53.412109375,42.587890625
79.382568359375,-47.382568359375,45.8359375,34.1640625
72.9296875,-44.9296875,45.95166015625,34.04833984375
60.023193359375,-52.023193359375,55.76904296875,44.23095703125
71.61279296875,-39.61279296875,53.4482421875,42.5517578125
65.59521484375,-49.59521484375,39.2158203125,28.7841796875
76.897216796875,-44.897216796875,51.244140625,40.755859375
69.990234375,-57.990234375,41.5400390625,30.4599609375
67.598876953125,-63.598876953125,55.90625,44.09375
73.25439453125,-57.25439453125,46.0322265625,33.9677734375
77.40869140625,-49.40869140625,45.6865234375,34.3134765625
81.10888671875,-41.10888671875,52.896484375,43.103515625
73.4580078125,-45.4580078125,37.99560546875,30.00439453125
61.15234375,-57.15234375,51.46533203125,44.53466796875
66.262451171875,-54.262451171875,33.65380859375,26.34619140625
74.291259765625,-50.291259765625,38.548828125,29.451171875
72.447509765625,-56.447509765625,55.76904296875,44.23095703125
79.98779296875,-51.98779296875,50.78173828125,37.21826171875
84.476318359375,-48.476318359375,41.197265625,26.802734375
73.880859375,-57.880859375,44.95166015625,31.04833984375
82.51513671875,-46.51513671875,42.283203125,29.716796875
64.8798828125,-60.8798828125,39.54443359375,28.45556640625
69.47412109375,-53.47412109375,34.99267578125,25.00732421875
72.634765625,-48.634765625,46.66748046875,37.33251953125
78.443359375,-42.443359375,50.4521484375,41.5478515625
72.72265625,-48.72265625,54.25537109375,45.74462890625
63.137451171875,-59.137451171875,36.1923828125,27.8076171875
77.368896484375,-45.368896484375,54.6123046875,45.3876953125
81.263916015625,-41.263916015625,51.9013671875,40.0986328125
80.896728515625,-40.896728515625,58.150390625,41.849609375
62.512451171875,-58.512451171875,48.91015625,27.08984375
80.387451171875,-40.387451171875,47.23974609375,20.76025390625
76.657958984375,-44.657958984375,44.103515625,15.896484375
65.19775390625,-57.19775390625,42.92236328125,17.07763671875
63.632568359375,-59.632568359375,39.95166015625,20.04833984375
73.501708984375,-49.501708984375,42.23779296875,29.76220703125
72.484619140625,-48.484619140625,53.15625,46.84375
66.599365234375,-50.599365234375,33.796875,30.203125
74.262939453125,-38.262939453125,46.513671875,41.486328125
60.1689453125,-48.1689453125,54.8466796875,45.1533203125
64.9853515625,-40.9853515625,49.783203125,34.216796875
55.0283203125,-51.0283203125,52.189453125,31.810546875
56.113525390625,-52.113525390625,47.21484375,24.78515625
73.682373046875,-37.682373046875,40.56201171875,19.43798828125
59.09375,-55.09375,50.5673828125,33.4326171875
71.8916015625,-43.8916015625,46.046875,33.953125
69.935791015625,-45.935791015625,53.95068359375,46.04931640625
77.390869140625,-37.390869140625,52.9541015625,47.0458984375
66.6044921875,-46.6044921875,49.1875,42.8125
73.92626953125,-37.92626953125,34.25048828125,25.74951171875
69.544921875,-41.544921875,49.48583984375,38.51416015625
73.433349609375,-37.433349609375,38.33251953125,25.66748046875
71.433349609375,-39.433349609375,42.5400390625,29.4599609375
59.422607421875,-51.422607421875,38.17919921875,25.82080078125
63.418212890625,-47.418212890625,37.5,26.5
61.538818359375,-49.538818359375,50.77099609375,41.22900390625
59.8662109375,-51.8662109375,50.1845703125,41.8154296875
58.331298828125,-54.331298828125,51.82470703125,44.17529296875
70.70703125,-42.70703125,51.6884765625,44.3115234375
72.720947265625,-40.720947265625,43.71435546875,36.28564453125
66.2265625,-46.2265625,47.8076171875,40.1923828125
69.343505859375,-41.343505859375,43.85986328125,36.14013671875
70.466552734375,-38.466552734375,51.77978515625,44.22021484375
60.0986328125,-48.0986328125,41.53466796875,34.46533203125
60.59765625,-48.59765625,47.20458984375,40.79541015625
59.952880859375,-51.952880859375,38.98193359375,33.01806640625
73.6953125,-41.6953125,39.0986328125,32.9013671875
65.004150390625,-53.004150390625,43.6796875,36.3203125
71.044189453125,-47.044189453125,54.625,45.375
67.43212890625,-47.43212890625,47.6083984375,36.3916015625
60.5595703125,-48.5595703125,50.22802734375,37.77197265625
71.515625,-31.515625,40.22265625,27.77734375
53.587158203125,-45.587158203125,53.61572265625,42.38427734375
67.619384765625,-31.619384765625,34.7216796875,25.2783203125
63.597412109375,-39.597412109375,53.97900390625,46.02099609375
56.680908203125,-52.680908203125,53.73046875,46.26953125
77.6572265625,-37.6572265625,50.06640625,41.93359375
73.539794921875,-45.539794921875,34.8134765625,25.1865234375
65.9453125,-53.9453125,53.65234375,42.34765625
73.076416015625,-45.076416015625,46.2646484375,33.7353515625
63.429931640625,-51.429931640625,52.45849609375,39.54150390625
61.51220703125,-49.51220703125,42.2197265625,29.7802734375
71.72412109375,-35.72412109375,55.69775390625,44.30224609375
68.371337890625,-36.371337890625,55.1474609375,44.8525390625
69.685546875,-33.685546875,50.8212890625,41.1787109375
61.78662109375,-41.78662109375,52.865234375,43.134765625
54.625732421875,-50.625732421875,47.24755859375,36.75244140625
69.9482421875,-37.9482421875,45.76513671875,34.23486328125
67.32568359375,-43.32568359375,48.125,35.875
70.280517578125,-42.280517578125,46.07421875,33.92578125
76.464111328125,-36.464111328125,37.50537109375,26.49462890625
75.82568359375,-35.82568359375,44.5,35.5
64.656494140625,-44.656494140625,51.28125,44.71875
71.46826171875,-35.46826171875,32.1298828125,27.8701171875
68.746826171875,-36.746826171875,33.31591796875,30.68408203125
58.723876953125,-46.723876953125,39.03076171875,36.96923828125
57.29345703125,-49.29345703125,33.326171875,30.673828125
56.134033203125,-52.134033203125,52.0810546875,47.9189453125
64.922607421875,-44.922607421875,53.03564453125,46.96435546875
75.492431640625,-35.492431640625,39.90625,32.09375
75.849609375,-35.849609375,54.5068359375,45.4931640625
60.07763671875,-52.07763671875,52.79833984375,43.20166015625
76.213134765625,-36.213134765625,44.8505859375,35.1494140625
72.179443359375,-40.179443359375,52.75390625,43.24609375
71.82080078125,-39.82080078125,52.57568359375,43.42431640625
69.02099609375,-41.02099609375,40.37109375,31.62890625
71.84033203125,-35.84033203125,46.22021484375,37.77978515625
62.5830078125,-42.5830078125,50.23486328125,41.76513671875
61.749267578125,-41.749267578125,52.51171875,43.48828125
71.85791015625,-31.85791015625,47.05322265625,36.94677734375
73.16943359375,-33.16943359375,35.73779296875,24.26220703125
59.4296875,-51.4296875,50.36572265625,37.63427734375
73.826416015625,-41.826416015625,52.76123046875,39.23876953125
65.288818359375,-53.288818359375,50.86181640625,37.13818359375
71.042724609375,-47.042724609375,52.74462890625,39.25537109375
63.103271484375,-51.103271484375,56.564453125,43.435546875
62.37548828125,-46.37548828125,52.45458984375,39.54541015625
62.248046875,-42.248046875,56.45068359375,43.54931640625
55.881103515625,-47.881103515625,44.49365234375,31.50634765625
63.57275390625,-43.57275390625,52.4833984375,39.5166015625
60.58349609375,-52.58349609375,46.353515625,33.646484375
67.54248046875,-51.54248046875,46.12109375,33.87890625
81.195556640625,-41.195556640625,41.884765625,30.115234375
69.05322265625,-53.05322265625,51.76904296875,40.23095703125
67.569091796875,-51.569091796875,37.8369140625,26.1630859375
71.807373046875,-43.807373046875,56.0068359375,43.9931640625
68.830322265625,-44.830322265625,54.05126953125,41.94873046875
67.16650390625,-47.16650390625,49.7236328125,38.2763671875
72.601318359375,-44.601318359375,50.9345703125,41.0654296875
74.352783203125,-46.352783203125,45.861328125,38.138671875
75.510986328125,-47.510986328125,32.875,27.125
81.514892578125,-41.514892578125,36.33447265625,31.66552734375
